#K-Path(1/A) Energy-Level(eV)
# NKPTS & NBANDS: 896  58
# Band-Index    1
   0.00000    -22.743955
   0.00520    -22.743953
   0.01040    -22.743951
   0.01559    -22.743945
   0.02079    -22.743943
   0.02599    -22.743934
   0.03119    -22.743927
   0.03639    -22.743917
   0.04159    -22.743907
   0.04678    -22.743897
   0.05198    -22.743885
   0.05718    -22.743872
   0.06238    -22.743859
   0.06758    -22.743843
   0.07278    -22.743825
   0.07797    -22.743807
   0.08317    -22.743787
   0.08837    -22.743765
   0.09357    -22.743744
   0.09877    -22.743720
   0.10396    -22.743693
   0.10916    -22.743665
   0.11436    -22.743640
   0.11956    -22.743614
   0.12476    -22.743583
   0.12996    -22.743553
   0.13515    -22.743521
   0.14035    -22.743489
   0.14555    -22.743454
   0.15075    -22.743420
   0.15595    -22.743383
   0.16115    -22.743347
   0.16634    -22.743308
   0.17154    -22.743268
   0.17674    -22.743227
   0.18194    -22.743186
   0.18714    -22.743145
   0.19233    -22.743103
   0.19753    -22.743060
   0.20273    -22.743014
   0.20793    -22.742968
   0.21313    -22.742922
   0.21833    -22.742875
   0.22352    -22.742828
   0.22872    -22.742780
   0.23392    -22.742731
   0.23912    -22.742683
   0.24432    -22.742632
   0.24952    -22.742580
   0.25471    -22.742529
   0.25991    -22.742478
   0.26511    -22.742425
   0.27031    -22.742373
   0.27551    -22.742320
   0.28070    -22.742268
   0.28590    -22.742213
   0.29110    -22.742157
   0.29630    -22.742101
   0.30150    -22.742046
   0.30670    -22.741989
   0.31189    -22.741935
   0.31709    -22.741881
   0.32229    -22.741826
   0.32749    -22.741771
   0.33269    -22.741718
   0.33789    -22.741663
   0.34308    -22.741606
   0.34828    -22.741551
   0.35348    -22.741497
   0.35868    -22.741443
   0.36388    -22.741387
   0.36907    -22.741333
   0.37427    -22.741277
   0.37947    -22.741223
   0.38467    -22.741170
   0.38987    -22.741119
   0.39507    -22.741066
   0.40026    -22.741013
   0.40546    -22.740960
   0.41066    -22.740908
   0.41586    -22.740857
   0.42106    -22.740804
   0.42626    -22.740754
   0.43145    -22.740705
   0.43665    -22.740657
   0.44185    -22.740610
   0.44705    -22.740564
   0.45225    -22.740519
   0.45744    -22.740474
   0.46264    -22.740429
   0.46784    -22.740386
   0.47304    -22.740344
   0.47824    -22.740301
   0.48344    -22.740261
   0.48863    -22.740222
   0.49383    -22.740182
   0.49903    -22.740144
   0.50423    -22.740106
   0.50943    -22.740069
   0.51462    -22.740033
   0.51982    -22.739998
   0.52502    -22.739964
   0.53022    -22.739931
   0.53542    -22.739899
   0.54062    -22.739869
   0.54581    -22.739840
   0.55101    -22.739810
   0.55621    -22.739784
   0.56141    -22.739759
   0.56661    -22.739735
   0.57181    -22.739710
   0.57700    -22.739688
   0.58220    -22.739667
   0.58740    -22.739646
   0.59260    -22.739627
   0.59780    -22.739612
   0.60299    -22.739595
   0.60819    -22.739580
   0.61339    -22.739568
   0.61859    -22.739557
   0.62379    -22.739546
   0.62899    -22.739539
   0.63418    -22.739530
   0.63938    -22.739526
   0.64458    -22.739521
   0.64978    -22.739517
   0.65498    -22.739514
   0.66018    -22.739514
   0.66018    -22.739514
   0.66318    -22.739513
   0.66618    -22.739513
   0.66918    -22.739514
   0.67218    -22.739513
   0.67518    -22.739512
   0.67818    -22.739511
   0.68118    -22.739510
   0.68419    -22.739510
   0.68719    -22.739509
   0.69019    -22.739506
   0.69319    -22.739504
   0.69619    -22.739502
   0.69919    -22.739501
   0.70219    -22.739498
   0.70519    -22.739496
   0.70819    -22.739492
   0.71120    -22.739489
   0.71420    -22.739486
   0.71720    -22.739484
   0.72020    -22.739481
   0.72320    -22.739478
   0.72620    -22.739474
   0.72920    -22.739471
   0.73220    -22.739469
   0.73521    -22.739468
   0.73821    -22.739465
   0.74121    -22.739462
   0.74421    -22.739458
   0.74721    -22.739454
   0.75021    -22.739450
   0.75321    -22.739446
   0.75621    -22.739442
   0.75922    -22.739438
   0.76222    -22.739435
   0.76522    -22.739430
   0.76822    -22.739425
   0.77122    -22.739420
   0.77422    -22.739415
   0.77722    -22.739409
   0.78022    -22.739403
   0.78322    -22.739397
   0.78623    -22.739392
   0.78923    -22.739389
   0.79223    -22.739385
   0.79523    -22.739379
   0.79823    -22.739373
   0.80123    -22.739368
   0.80423    -22.739362
   0.80723    -22.739358
   0.81024    -22.739352
   0.81324    -22.739345
   0.81624    -22.739338
   0.81924    -22.739333
   0.82224    -22.739326
   0.82524    -22.739320
   0.82824    -22.739314
   0.83124    -22.739308
   0.83425    -22.739299
   0.83725    -22.739293
   0.84025    -22.739286
   0.84325    -22.739276
   0.84625    -22.739269
   0.84925    -22.739264
   0.85225    -22.739257
   0.85525    -22.739250
   0.85825    -22.739242
   0.86126    -22.739235
   0.86426    -22.739228
   0.86726    -22.739222
   0.87026    -22.739214
   0.87326    -22.739209
   0.87626    -22.739202
   0.87926    -22.739195
   0.88226    -22.739188
   0.88527    -22.739182
   0.88827    -22.739174
   0.89127    -22.739167
   0.89427    -22.739161
   0.89727    -22.739155
   0.90027    -22.739149
   0.90327    -22.739143
   0.90627    -22.739137
   0.90928    -22.739129
   0.91228    -22.739123
   0.91528    -22.739117
   0.91828    -22.739108
   0.92128    -22.739103
   0.92428    -22.739097
   0.92728    -22.739091
   0.93028    -22.739085
   0.93328    -22.739078
   0.93629    -22.739072
   0.93929    -22.739067
   0.94229    -22.739061
   0.94529    -22.739057
   0.94829    -22.739050
   0.95129    -22.739044
   0.95429    -22.739039
   0.95729    -22.739037
   0.96030    -22.739031
   0.96330    -22.739026
   0.96630    -22.739021
   0.96930    -22.739018
   0.97230    -22.739014
   0.97530    -22.739011
   0.97830    -22.739005
   0.98130    -22.739001
   0.98431    -22.738996
   0.98731    -22.738993
   0.99031    -22.738989
   0.99331    -22.738986
   0.99631    -22.738983
   0.99931    -22.738980
   1.00231    -22.738977
   1.00531    -22.738974
   1.00831    -22.738971
   1.01132    -22.738968
   1.01432    -22.738966
   1.01732    -22.738963
   1.02032    -22.738961
   1.02332    -22.738960
   1.02632    -22.738959
   1.02932    -22.738960
   1.03232    -22.738960
   1.03533    -22.738961
   1.03833    -22.738961
   1.04133    -22.738962
   1.04133    -22.738962
   1.04733    -22.738961
   1.05333    -22.738960
   1.05934    -22.738962
   1.06534    -22.738965
   1.07134    -22.738967
   1.07734    -22.738972
   1.08334    -22.738980
   1.08935    -22.738989
   1.09535    -22.738997
   1.10135    -22.739008
   1.10735    -22.739021
   1.11336    -22.739035
   1.11936    -22.739049
   1.12536    -22.739064
   1.13136    -22.739080
   1.13737    -22.739096
   1.14337    -22.739115
   1.14937    -22.739133
   1.15537    -22.739153
   1.16138    -22.739177
   1.16738    -22.739199
   1.17338    -22.739223
   1.17938    -22.739249
   1.18539    -22.739275
   1.19139    -22.739304
   1.19739    -22.739333
   1.20339    -22.739365
   1.20940    -22.739396
   1.21540    -22.739429
   1.22140    -22.739463
   1.22740    -22.739496
   1.23340    -22.739530
   1.23941    -22.739566
   1.24541    -22.739605
   1.25141    -22.739644
   1.25741    -22.739685
   1.26342    -22.739728
   1.26942    -22.739772
   1.27542    -22.739816
   1.28142    -22.739861
   1.28743    -22.739908
   1.29343    -22.739958
   1.29943    -22.740007
   1.30543    -22.740056
   1.31144    -22.740105
   1.31744    -22.740158
   1.32344    -22.740212
   1.32944    -22.740266
   1.33545    -22.740319
   1.34145    -22.740373
   1.34745    -22.740429
   1.35345    -22.740485
   1.35946    -22.740546
   1.36546    -22.740603
   1.37146    -22.740662
   1.37746    -22.740723
   1.38346    -22.740786
   1.38947    -22.740847
   1.39547    -22.740909
   1.40147    -22.740971
   1.40747    -22.741034
   1.41348    -22.741095
   1.41948    -22.741159
   1.42548    -22.741224
   1.43148    -22.741290
   1.43749    -22.741352
   1.44349    -22.741417
   1.44949    -22.741481
   1.45549    -22.741546
   1.46150    -22.741606
   1.46750    -22.741671
   1.47350    -22.741734
   1.47950    -22.741800
   1.48551    -22.741866
   1.49151    -22.741930
   1.49751    -22.741995
   1.50351    -22.742058
   1.50952    -22.742122
   1.51552    -22.742186
   1.52152    -22.742247
   1.52752    -22.742309
   1.53352    -22.742372
   1.53953    -22.742433
   1.54553    -22.742493
   1.55153    -22.742553
   1.55753    -22.742611
   1.56354    -22.742670
   1.56954    -22.742728
   1.57554    -22.742785
   1.58154    -22.742843
   1.58755    -22.742896
   1.59355    -22.742950
   1.59955    -22.743003
   1.60555    -22.743053
   1.61156    -22.743105
   1.61756    -22.743155
   1.62356    -22.743201
   1.62956    -22.743248
   1.63557    -22.743294
   1.64157    -22.743339
   1.64757    -22.743383
   1.65357    -22.743423
   1.65958    -22.743462
   1.66558    -22.743500
   1.67158    -22.743539
   1.67758    -22.743575
   1.68358    -22.743607
   1.68959    -22.743642
   1.69559    -22.743674
   1.70159    -22.743703
   1.70759    -22.743730
   1.71360    -22.743757
   1.71960    -22.743781
   1.72560    -22.743805
   1.73160    -22.743827
   1.73761    -22.743847
   1.74361    -22.743866
   1.74961    -22.743881
   1.75561    -22.743893
   1.76162    -22.743907
   1.76762    -22.743919
   1.77362    -22.743929
   1.77962    -22.743936
   1.78563    -22.743942
   1.79163    -22.743949
   1.79763    -22.743953
   1.80363    -22.743955
   1.80363    -22.743955
   1.80614    -22.743955
   1.80864    -22.743955
   1.81115    -22.743953
   1.81365    -22.743949
   1.81615    -22.743951
   1.81866    -22.743951
   1.82116    -22.743951
   1.82367    -22.743956
   1.82617    -22.743956
   1.82868    -22.743956
   1.83118    -22.743956
   1.83368    -22.743956
   1.83619    -22.743956
   1.83869    -22.743956
   1.84120    -22.743956
   1.84370    -22.743956
   1.84621    -22.743956
   1.84871    -22.743956
   1.85121    -22.743956
   1.85372    -22.743956
   1.85622    -22.743956
   1.85873    -22.743956
   1.86123    -22.743956
   1.86373    -22.743954
   1.86624    -22.743954
   1.86874    -22.743956
   1.87125    -22.743956
   1.87375    -22.743958
   1.87626    -22.743958
   1.87876    -22.743958
   1.88126    -22.743958
   1.88377    -22.743961
   1.88627    -22.743961
   1.88878    -22.743958
   1.89128    -22.743958
   1.89379    -22.743958
   1.89629    -22.743958
   1.89879    -22.743958
   1.90130    -22.743954
   1.90380    -22.743958
   1.90631    -22.743963
   1.90881    -22.743963
   1.91132    -22.743963
   1.91382    -22.743963
   1.91632    -22.743963
   1.91883    -22.743963
   1.92133    -22.743963
   1.92384    -22.743967
   1.92634    -22.743967
   1.92885    -22.743967
   1.93135    -22.743967
   1.93385    -22.743967
   1.93636    -22.743971
   1.93886    -22.743971
   1.94137    -22.743971
   1.94387    -22.743971
   1.94638    -22.743971
   1.94888    -22.743971
   1.95138    -22.743971
   1.95389    -22.743971
   1.95639    -22.743971
   1.95890    -22.743971
   1.96140    -22.743971
   1.96391    -22.743971
   1.96641    -22.743971
   1.96891    -22.743971
   1.97142    -22.743971
   1.97392    -22.743971
   1.97643    -22.743971
   1.97893    -22.743964
   1.98143    -22.743963
   1.98394    -22.743965
   1.98644    -22.743965
   1.98895    -22.743965
   1.99145    -22.743962
   1.99396    -22.743962
   1.99646    -22.743962
   1.99896    -22.743962
   2.00147    -22.743962
   2.00397    -22.743962
   2.00648    -22.743962
   2.00898    -22.743962
   2.01149    -22.743962
   2.01399    -22.743962
   2.01649    -22.743962
   2.01900    -22.743962
   2.02150    -22.743962
   2.02401    -22.743961
   2.02651    -22.743961
   2.02902    -22.743963
   2.03152    -22.743963
   2.03402    -22.743969
   2.03653    -22.743969
   2.03903    -22.743969
   2.04154    -22.743969
   2.04404    -22.743969
   2.04655    -22.743965
   2.04905    -22.743965
   2.05155    -22.743965
   2.05406    -22.743965
   2.05656    -22.743965
   2.05907    -22.743965
   2.06157    -22.743965
   2.06408    -22.743965
   2.06658    -22.743965
   2.06908    -22.743965
   2.07159    -22.743965
   2.07409    -22.743963
   2.07660    -22.743967
   2.07910    -22.743967
   2.08160    -22.743967
   2.08411    -22.743967
   2.08661    -22.743967
   2.08912    -22.743967
   2.09162    -22.743967
   2.09413    -22.743967
   2.09663    -22.743967
   2.09913    -22.743967
   2.10164    -22.743967
   2.10414    -22.743967
   2.10665    -22.743968
   2.10915    -22.743968
   2.11166    -22.743968
   2.11416    -22.743970
   2.11666    -22.743970
   2.11917    -22.743970
   2.12167    -22.743974
   2.12167    -22.743974
   2.12687    -22.743971
   2.13207    -22.743967
   2.13727    -22.743964
   2.14247    -22.743957
   2.14766    -22.743952
   2.15286    -22.743945
   2.15806    -22.743936
   2.16326    -22.743926
   2.16846    -22.743915
   2.17366    -22.743903
   2.17885    -22.743889
   2.18405    -22.743873
   2.18925    -22.743855
   2.19445    -22.743837
   2.19965    -22.743821
   2.20484    -22.743800
   2.21004    -22.743778
   2.21524    -22.743755
   2.22044    -22.743729
   2.22564    -22.743705
   2.23084    -22.743678
   2.23603    -22.743650
   2.24123    -22.743621
   2.24643    -22.743589
   2.25163    -22.743556
   2.25683    -22.743523
   2.26203    -22.743488
   2.26722    -22.743453
   2.27242    -22.743417
   2.27762    -22.743379
   2.28282    -22.743340
   2.28802    -22.743302
   2.29321    -22.743261
   2.29841    -22.743222
   2.30361    -22.743181
   2.30881    -22.743139
   2.31401    -22.743097
   2.31921    -22.743052
   2.32440    -22.743007
   2.32960    -22.742964
   2.33480    -22.742918
   2.34000    -22.742867
   2.34520    -22.742822
   2.35040    -22.742773
   2.35559    -22.742723
   2.36079    -22.742673
   2.36599    -22.742623
   2.37119    -22.742573
   2.37639    -22.742522
   2.38158    -22.742471
   2.38678    -22.742418
   2.39198    -22.742364
   2.39718    -22.742311
   2.40238    -22.742257
   2.40758    -22.742203
   2.41277    -22.742148
   2.41797    -22.742093
   2.42317    -22.742039
   2.42837    -22.741986
   2.43357    -22.741931
   2.43877    -22.741876
   2.44396    -22.741819
   2.44916    -22.741763
   2.45436    -22.741709
   2.45956    -22.741655
   2.46476    -22.741603
   2.46995    -22.741548
   2.47515    -22.741493
   2.48035    -22.741438
   2.48555    -22.741383
   2.49075    -22.741328
   2.49595    -22.741273
   2.50114    -22.741222
   2.50634    -22.741168
   2.51154    -22.741117
   2.51674    -22.741064
   2.52194    -22.741011
   2.52714    -22.740961
   2.53233    -22.740911
   2.53753    -22.740860
   2.54273    -22.740808
   2.54793    -22.740759
   2.55313    -22.740710
   2.55832    -22.740664
   2.56352    -22.740614
   2.56872    -22.740567
   2.57392    -22.740520
   2.57912    -22.740474
   2.58432    -22.740430
   2.58951    -22.740387
   2.59471    -22.740343
   2.59991    -22.740301
   2.60511    -22.740260
   2.61031    -22.740220
   2.61550    -22.740179
   2.62070    -22.740139
   2.62590    -22.740103
   2.63110    -22.740066
   2.63630    -22.740032
   2.64150    -22.739997
   2.64669    -22.739965
   2.65189    -22.739932
   2.65709    -22.739900
   2.66229    -22.739871
   2.66749    -22.739843
   2.67269    -22.739815
   2.67788    -22.739789
   2.68308    -22.739762
   2.68828    -22.739739
   2.69348    -22.739716
   2.69868    -22.739694
   2.70387    -22.739674
   2.70907    -22.739654
   2.71427    -22.739633
   2.71947    -22.739615
   2.72467    -22.739602
   2.72987    -22.739588
   2.73506    -22.739576
   2.74026    -22.739561
   2.74546    -22.739550
   2.75066    -22.739539
   2.75586    -22.739530
   2.76106    -22.739526
   2.76625    -22.739521
   2.77145    -22.739517
   2.77665    -22.739515
   2.78185    -22.739515
   2.78185    -22.739515
   2.78485    -22.739514
   2.78785    -22.739514
   2.79085    -22.739512
   2.79385    -22.739513
   2.79685    -22.739512
   2.79986    -22.739510
   2.80286    -22.739509
   2.80586    -22.739508
   2.80886    -22.739507
   2.81186    -22.739505
   2.81486    -22.739506
   2.81786    -22.739508
   2.82086    -22.739508
   2.82387    -22.739504
   2.82687    -22.739503
   2.82987    -22.739502
   2.83287    -22.739500
   2.83587    -22.739498
   2.83887    -22.739495
   2.84187    -22.739492
   2.84487    -22.739488
   2.84787    -22.739486
   2.85088    -22.739483
   2.85388    -22.739478
   2.85688    -22.739475
   2.85988    -22.739470
   2.86288    -22.739466
   2.86588    -22.739462
   2.86888    -22.739458
   2.87188    -22.739454
   2.87489    -22.739450
   2.87789    -22.739445
   2.88089    -22.739442
   2.88389    -22.739437
   2.88689    -22.739433
   2.88989    -22.739429
   2.89289    -22.739425
   2.89589    -22.739420
   2.89890    -22.739413
   2.90190    -22.739408
   2.90490    -22.739403
   2.90790    -22.739395
   2.91090    -22.739393
   2.91390    -22.739389
   2.91690    -22.739383
   2.91990    -22.739373
   2.92290    -22.739367
   2.92591    -22.739362
   2.92891    -22.739356
   2.93191    -22.739349
   2.93491    -22.739343
   2.93791    -22.739338
   2.94091    -22.739331
   2.94391    -22.739324
   2.94691    -22.739318
   2.94992    -22.739311
   2.95292    -22.739305
   2.95592    -22.739298
   2.95892    -22.739292
   2.96192    -22.739285
   2.96492    -22.739278
   2.96792    -22.739271
   2.97092    -22.739264
   2.97393    -22.739260
   2.97693    -22.739254
   2.97993    -22.739249
   2.98293    -22.739243
   2.98593    -22.739236
   2.98893    -22.739229
   2.99193    -22.739222
   2.99493    -22.739216
   2.99793    -22.739208
   3.00094    -22.739203
   3.00394    -22.739196
   3.00694    -22.739188
   3.00994    -22.739181
   3.01294    -22.739174
   3.01594    -22.739168
   3.01894    -22.739160
   3.02194    -22.739153
   3.02495    -22.739148
   3.02795    -22.739141
   3.03095    -22.739135
   3.03395    -22.739130
   3.03695    -22.739123
   3.03995    -22.739117
   3.04295    -22.739111
   3.04595    -22.739106
   3.04896    -22.739099
   3.05196    -22.739095
   3.05496    -22.739089
   3.05796    -22.739084
   3.06096    -22.739080
   3.06396    -22.739075
   3.06696    -22.739069
   3.06996    -22.739064
   3.07296    -22.739059
   3.07597    -22.739054
   3.07897    -22.739049
   3.08197    -22.739042
   3.08497    -22.739039
   3.08797    -22.739033
   3.09097    -22.739029
   3.09397    -22.739023
   3.09697    -22.739019
   3.09998    -22.739015
   3.10298    -22.739011
   3.10598    -22.739007
   3.10898    -22.739002
   3.11198    -22.738999
   3.11498    -22.738996
   3.11798    -22.738992
   3.12098    -22.738988
   3.12399    -22.738987
   3.12699    -22.738984
   3.12999    -22.738983
   3.13299    -22.738981
   3.13599    -22.738979
   3.13899    -22.738979
   3.14199    -22.738978
   3.14499    -22.738981
   3.14799    -22.738979
   3.15100    -22.738980
   3.15400    -22.738979
   3.15700    -22.738981
   3.16000    -22.738980
   3.16300    -22.738979
   3.16300    -22.738979
   3.16900    -22.738982
   3.17501    -22.738982
   3.18101    -22.738980
   3.18701    -22.738982
   3.19301    -22.738984
   3.19902    -22.738987
   3.20502    -22.738993
   3.21102    -22.738998
   3.21702    -22.739009
   3.22302    -22.739017
   3.22903    -22.739030
   3.23503    -22.739042
   3.24103    -22.739052
   3.24703    -22.739065
   3.25304    -22.739081
   3.25904    -22.739098
   3.26504    -22.739115
   3.27104    -22.739133
   3.27705    -22.739153
   3.28305    -22.739176
   3.28905    -22.739201
   3.29505    -22.739225
   3.30106    -22.739250
   3.30706    -22.739278
   3.31306    -22.739306
   3.31906    -22.739335
   3.32507    -22.739366
   3.33107    -22.739398
