#K-Path(1/A) Energy-Level(eV)
# NKPTS & NBANDS: 896  58
# Band-Index    1
   0.00000    -22.745442
   0.00520    -22.745442
   0.01039    -22.745437
   0.01559    -22.745436
   0.02079    -22.745430
   0.02598    -22.745423
   0.03118    -22.745413
   0.03638    -22.745405
   0.04158    -22.745395
   0.04677    -22.745384
   0.05197    -22.745371
   0.05717    -22.745361
   0.06236    -22.745346
   0.06756    -22.745331
   0.07276    -22.745313
   0.07795    -22.745296
   0.08315    -22.745275
   0.08835    -22.745254
   0.09354    -22.745232
   0.09874    -22.745208
   0.10394    -22.745181
   0.10913    -22.745153
   0.11433    -22.745128
   0.11953    -22.745102
   0.12473    -22.745072
   0.12992    -22.745042
   0.13512    -22.745011
   0.14032    -22.744977
   0.14551    -22.744943
   0.15071    -22.744908
   0.15591    -22.744873
   0.16110    -22.744836
   0.16630    -22.744797
   0.17150    -22.744758
   0.17669    -22.744718
   0.18189    -22.744675
   0.18709    -22.744634
   0.19228    -22.744592
   0.19748    -22.744550
   0.20268    -22.744505
   0.20788    -22.744459
   0.21307    -22.744412
   0.21827    -22.744365
   0.22347    -22.744319
   0.22866    -22.744271
   0.23386    -22.744223
   0.23906    -22.744173
   0.24425    -22.744124
   0.24945    -22.744073
   0.25465    -22.744021
   0.25984    -22.743970
   0.26504    -22.743918
   0.27024    -22.743866
   0.27543    -22.743814
   0.28063    -22.743761
   0.28583    -22.743706
   0.29103    -22.743651
   0.29622    -22.743595
   0.30142    -22.743539
   0.30662    -22.743485
   0.31181    -22.743430
   0.31701    -22.743375
   0.32221    -22.743322
   0.32740    -22.743267
   0.33260    -22.743212
   0.33780    -22.743159
   0.34299    -22.743103
   0.34819    -22.743048
   0.35339    -22.742992
   0.35858    -22.742939
   0.36378    -22.742883
   0.36898    -22.742830
   0.37418    -22.742775
   0.37937    -22.742722
   0.38457    -22.742668
   0.38977    -22.742615
   0.39496    -22.742561
   0.40016    -22.742509
   0.40536    -22.742456
   0.41055    -22.742406
   0.41575    -22.742353
   0.42095    -22.742302
   0.42614    -22.742253
   0.43134    -22.742204
   0.43654    -22.742156
   0.44173    -22.742108
   0.44693    -22.742062
   0.45213    -22.742017
   0.45733    -22.741973
   0.46252    -22.741929
   0.46772    -22.741886
   0.47292    -22.741844
   0.47811    -22.741801
   0.48331    -22.741764
   0.48851    -22.741722
   0.49370    -22.741682
   0.49890    -22.741646
   0.50410    -22.741606
   0.50929    -22.741569
   0.51449    -22.741533
   0.51969    -22.741499
   0.52488    -22.741465
   0.53008    -22.741433
   0.53528    -22.741401
   0.54048    -22.741370
   0.54567    -22.741340
   0.55087    -22.741312
   0.55607    -22.741288
   0.56126    -22.741260
   0.56646    -22.741236
   0.57166    -22.741211
   0.57685    -22.741191
   0.58205    -22.741169
   0.58725    -22.741149
   0.59244    -22.741133
   0.59764    -22.741115
   0.60284    -22.741099
   0.60803    -22.741085
   0.61323    -22.741070
   0.61843    -22.741060
   0.62363    -22.741049
   0.62882    -22.741040
   0.63402    -22.741033
   0.63922    -22.741028
   0.64441    -22.741023
   0.64961    -22.741020
   0.65481    -22.741017
   0.66000    -22.741017
   0.66000    -22.741017
   0.66300    -22.741017
   0.66600    -22.741016
   0.66900    -22.741017
   0.67200    -22.741016
   0.67501    -22.741017
   0.67801    -22.741015
   0.68101    -22.741014
   0.68401    -22.741012
   0.68701    -22.741011
   0.69001    -22.741010
   0.69301    -22.741007
   0.69601    -22.741005
   0.69901    -22.741003
   0.70201    -22.741000
   0.70501    -22.740998
   0.70801    -22.740995
   0.71101    -22.740993
   0.71401    -22.740989
   0.71701    -22.740986
   0.72001    -22.740984
   0.72301    -22.740981
   0.72601    -22.740978
   0.72901    -22.740974
   0.73201    -22.740972
   0.73501    -22.740969
   0.73801    -22.740967
   0.74101    -22.740964
   0.74401    -22.740960
   0.74702    -22.740956
   0.75002    -22.740952
   0.75302    -22.740949
   0.75602    -22.740945
   0.75902    -22.740940
   0.76202    -22.740937
   0.76502    -22.740932
   0.76802    -22.740927
   0.77102    -22.740922
   0.77402    -22.740919
   0.77702    -22.740913
   0.78002    -22.740906
   0.78302    -22.740901
   0.78602    -22.740898
   0.78902    -22.740894
   0.79202    -22.740888
   0.79502    -22.740882
   0.79802    -22.740877
   0.80102    -22.740871
   0.80402    -22.740867
   0.80702    -22.740861
   0.81002    -22.740856
   0.81302    -22.740850
   0.81603    -22.740842
   0.81903    -22.740836
   0.82203    -22.740830
   0.82503    -22.740823
   0.82803    -22.740818
   0.83103    -22.740812
   0.83403    -22.740804
   0.83703    -22.740796
   0.84003    -22.740790
   0.84303    -22.740781
   0.84603    -22.740773
   0.84903    -22.740766
   0.85203    -22.740761
   0.85503    -22.740753
   0.85803    -22.740746
   0.86103    -22.740739
   0.86403    -22.740734
   0.86703    -22.740726
   0.87003    -22.740719
   0.87303    -22.740711
   0.87603    -22.740705
   0.87903    -22.740698
   0.88203    -22.740692
   0.88503    -22.740686
   0.88804    -22.740679
   0.89104    -22.740672
   0.89404    -22.740663
   0.89704    -22.740657
   0.90004    -22.740653
   0.90304    -22.740648
   0.90604    -22.740641
   0.90904    -22.740635
   0.91204    -22.740627
   0.91504    -22.740621
   0.91804    -22.740616
   0.92104    -22.740609
   0.92404    -22.740601
   0.92704    -22.740595
   0.93004    -22.740589
   0.93304    -22.740583
   0.93604    -22.740577
   0.93904    -22.740571
   0.94204    -22.740567
   0.94504    -22.740562
   0.94804    -22.740556
   0.95104    -22.740549
   0.95404    -22.740543
   0.95704    -22.740539
   0.96005    -22.740535
   0.96305    -22.740532
   0.96605    -22.740527
   0.96905    -22.740524
   0.97205    -22.740519
   0.97505    -22.740514
   0.97805    -22.740510
   0.98105    -22.740506
   0.98405    -22.740501
   0.98705    -22.740497
   0.99005    -22.740494
   0.99305    -22.740492
   0.99605    -22.740488
   0.99905    -22.740485
   1.00205    -22.740482
   1.00505    -22.740477
   1.00805    -22.740475
   1.01105    -22.740472
   1.01405    -22.740470
   1.01705    -22.740470
   1.02005    -22.740467
   1.02305    -22.740467
   1.02605    -22.740467
   1.02905    -22.740466
   1.03206    -22.740467
   1.03506    -22.740466
   1.03806    -22.740467
   1.04106    -22.740467
   1.04106    -22.740467
   1.04706    -22.740466
   1.05306    -22.740468
   1.05906    -22.740466
   1.06506    -22.740470
   1.07106    -22.740473
   1.07706    -22.740477
   1.08306    -22.740486
   1.08906    -22.740495
   1.09506    -22.740501
   1.10106    -22.740514
   1.10707    -22.740526
   1.11307    -22.740538
   1.11907    -22.740554
   1.12507    -22.740567
   1.13107    -22.740583
   1.13707    -22.740601
   1.14307    -22.740618
   1.14907    -22.740636
   1.15507    -22.740659
   1.16107    -22.740680
   1.16707    -22.740704
   1.17307    -22.740727
   1.17908    -22.740752
   1.18508    -22.740779
   1.19108    -22.740806
   1.19708    -22.740837
   1.20308    -22.740867
   1.20908    -22.740898
   1.21508    -22.740932
   1.22108    -22.740966
   1.22708    -22.740999
   1.23308    -22.741034
   1.23908    -22.741070
   1.24508    -22.741108
   1.25109    -22.741146
   1.25709    -22.741189
   1.26309    -22.741230
   1.26909    -22.741274
   1.27509    -22.741319
   1.28109    -22.741364
   1.28709    -22.741409
   1.29309    -22.741461
   1.29909    -22.741508
   1.30509    -22.741557
   1.31109    -22.741606
   1.31709    -22.741659
   1.32310    -22.741712
   1.32910    -22.741766
   1.33510    -22.741818
   1.34110    -22.741873
   1.34710    -22.741929
   1.35310    -22.741987
   1.35910    -22.742044
   1.36510    -22.742102
   1.37110    -22.742161
   1.37710    -22.742221
   1.38310    -22.742282
   1.38910    -22.742345
   1.39511    -22.742406
   1.40111    -22.742468
   1.40711    -22.742531
   1.41311    -22.742594
   1.41911    -22.742656
   1.42511    -22.742721
   1.43111    -22.742784
   1.43711    -22.742851
   1.44311    -22.742914
   1.44911    -22.742977
   1.45511    -22.743041
   1.46111    -22.743104
   1.46712    -22.743166
   1.47312    -22.743229
   1.47912    -22.743294
   1.48512    -22.743360
   1.49112    -22.743424
   1.49712    -22.743487
   1.50312    -22.743549
   1.50912    -22.743614
   1.51512    -22.743678
   1.52112    -22.743738
   1.52712    -22.743802
   1.53312    -22.743863
   1.53913    -22.743925
   1.54513    -22.743984
   1.55113    -22.744042
   1.55713    -22.744101
   1.56313    -22.744162
   1.56913    -22.744219
   1.57513    -22.744276
   1.58113    -22.744332
   1.58713    -22.744387
   1.59313    -22.744440
   1.59913    -22.744493
   1.60513    -22.744543
   1.61114    -22.744595
   1.61714    -22.744643
   1.62314    -22.744691
   1.62914    -22.744739
   1.63514    -22.744783
   1.64114    -22.744828
   1.64714    -22.744870
   1.65314    -22.744912
   1.65914    -22.744952
   1.66514    -22.744991
   1.67114    -22.745027
   1.67714    -22.745063
   1.68315    -22.745097
   1.68915    -22.745131
   1.69515    -22.745163
   1.70115    -22.745191
   1.70715    -22.745219
   1.71315    -22.745245
   1.71915    -22.745269
   1.72515    -22.745294
   1.73115    -22.745316
   1.73715    -22.745335
   1.74315    -22.745354
   1.74915    -22.745369
   1.75516    -22.745383
   1.76116    -22.745395
   1.76716    -22.745405
   1.77316    -22.745415
   1.77916    -22.745425
   1.78516    -22.745432
   1.79116    -22.745438
   1.79716    -22.745442
   1.80316    -22.745442
   1.80316    -22.745442
   1.80567    -22.745442
   1.80817    -22.745440
   1.81068    -22.745440
   1.81318    -22.745436
   1.81569    -22.745440
   1.81820    -22.745442
   1.82070    -22.745443
   1.82321    -22.745443
   1.82571    -22.745443
   1.82822    -22.745443
   1.83072    -22.745443
   1.83323    -22.745443
   1.83573    -22.745443
   1.83824    -22.745443
   1.84075    -22.745443
   1.84325    -22.745443
   1.84576    -22.745443
   1.84826    -22.745443
   1.85077    -22.745443
   1.85327    -22.745443
   1.85578    -22.745443
   1.85828    -22.745443
   1.86079    -22.745443
   1.86330    -22.745443
   1.86580    -22.745443
   1.86831    -22.745443
   1.87081    -22.745443
   1.87332    -22.745445
   1.87582    -22.745445
   1.87833    -22.745445
   1.88083    -22.745447
   1.88334    -22.745450
   1.88585    -22.745450
   1.88835    -22.745450
   1.89086    -22.745450
   1.89336    -22.745450
   1.89587    -22.745447
   1.89837    -22.745447
   1.90088    -22.745450
   1.90338    -22.745447
   1.90589    -22.745453
   1.90840    -22.745453
   1.91090    -22.745451
   1.91341    -22.745451
   1.91591    -22.745451
   1.91842    -22.745451
   1.92092    -22.745451
   1.92343    -22.745451
   1.92593    -22.745455
   1.92844    -22.745455
   1.93095    -22.745455
   1.93345    -22.745455
   1.93596    -22.745455
   1.93846    -22.745459
   1.94097    -22.745459
   1.94347    -22.745459
   1.94598    -22.745459
   1.94848    -22.745459
   1.95099    -22.745459
   1.95350    -22.745459
   1.95600    -22.745459
   1.95851    -22.745458
   1.96101    -22.745458
   1.96352    -22.745458
   1.96602    -22.745458
   1.96853    -22.745458
   1.97103    -22.745458
   1.97354    -22.745455
   1.97605    -22.745455
   1.97855    -22.745454
   1.98106    -22.745451
   1.98356    -22.745451
   1.98607    -22.745449
   1.98857    -22.745449
   1.99108    -22.745449
   1.99358    -22.745449
   1.99609    -22.745449
   1.99860    -22.745449
   2.00110    -22.745449
   2.00361    -22.745449
   2.00611    -22.745449
   2.00862    -22.745449
   2.01112    -22.745449
   2.01363    -22.745449
   2.01613    -22.745449
   2.01864    -22.745449
   2.02115    -22.745449
   2.02365    -22.745449
   2.02616    -22.745449
   2.02866    -22.745449
   2.03117    -22.745449
   2.03367    -22.745456
   2.03618    -22.745456
   2.03868    -22.745456
   2.04119    -22.745453
   2.04370    -22.745453
   2.04620    -22.745453
   2.04871    -22.745453
   2.05121    -22.745453
   2.05372    -22.745453
   2.05622    -22.745453
   2.05873    -22.745453
   2.06123    -22.745452
   2.06374    -22.745452
   2.06625    -22.745452
   2.06875    -22.745452
   2.07126    -22.745451
   2.07376    -22.745451
   2.07627    -22.745451
   2.07877    -22.745451
   2.08128    -22.745454
   2.08378    -22.745454
   2.08629    -22.745454
   2.08879    -22.745454
   2.09130    -22.745454
   2.09381    -22.745454
   2.09631    -22.745454
   2.09882    -22.745454
   2.10132    -22.745454
   2.10383    -22.745454
   2.10633    -22.745454
   2.10884    -22.745454
   2.11134    -22.745456
   2.11385    -22.745456
   2.11636    -22.745456
   2.11886    -22.745457
   2.12137    -22.745453
   2.12137    -22.745453
   2.12656    -22.745457
   2.13176    -22.745454
   2.13696    -22.745450
   2.14215    -22.745447
   2.14735    -22.745440
   2.15255    -22.745432
   2.15775    -22.745423
   2.16294    -22.745414
   2.16814    -22.745402
   2.17334    -22.745390
   2.17853    -22.745376
   2.18373    -22.745362
   2.18893    -22.745344
   2.19412    -22.745327
   2.19932    -22.745307
   2.20452    -22.745286
   2.20971    -22.745263
   2.21491    -22.745240
   2.22011    -22.745216
   2.22530    -22.745194
   2.23050    -22.745167
   2.23570    -22.745138
   2.24090    -22.745109
   2.24609    -22.745078
   2.25129    -22.745045
   2.25649    -22.745012
   2.26168    -22.744977
   2.26688    -22.744943
   2.27208    -22.744908
   2.27727    -22.744870
   2.28247    -22.744830
   2.28767    -22.744791
   2.29286    -22.744752
   2.29806    -22.744710
   2.30326    -22.744670
   2.30845    -22.744629
   2.31365    -22.744587
   2.31885    -22.744543
   2.32405    -22.744498
   2.32924    -22.744454
   2.33444    -22.744409
   2.33964    -22.744359
   2.34483    -22.744312
   2.35003    -22.744266
   2.35523    -22.744214
   2.36042    -22.744166
   2.36562    -22.744114
   2.37082    -22.744063
   2.37601    -22.744011
   2.38121    -22.743959
   2.38641    -22.743908
   2.39160    -22.743855
   2.39680    -22.743802
   2.40200    -22.743749
   2.40720    -22.743696
   2.41239    -22.743642
   2.41759    -22.743588
   2.42279    -22.743535
   2.42798    -22.743479
   2.43318    -22.743424
   2.43838    -22.743371
   2.44357    -22.743315
   2.44877    -22.743258
   2.45397    -22.743204
   2.45916    -22.743150
   2.46436    -22.743097
   2.46956    -22.743041
   2.47475    -22.742988
   2.47995    -22.742932
   2.48515    -22.742877
   2.49035    -22.742824
   2.49554    -22.742771
   2.50074    -22.742717
   2.50594    -22.742664
   2.51113    -22.742614
   2.51633    -22.742561
   2.52153    -22.742509
   2.52672    -22.742460
   2.53192    -22.742409
   2.53712    -22.742357
   2.54231    -22.742307
   2.54751    -22.742258
   2.55271    -22.742211
   2.55790    -22.742162
   2.56310    -22.742116
   2.56830    -22.742065
   2.57350    -22.742018
   2.57869    -22.741972
   2.58389    -22.741928
   2.58909    -22.741885
   2.59428    -22.741842
   2.59948    -22.741801
   2.60468    -22.741759
   2.60987    -22.741719
   2.61507    -22.741679
   2.62027    -22.741640
   2.62546    -22.741604
   2.63066    -22.741568
   2.63586    -22.741533
   2.64105    -22.741500
   2.64625    -22.741467
   2.65145    -22.741434
   2.65665    -22.741402
   2.66184    -22.741374
   2.66704    -22.741344
   2.67224    -22.741316
   2.67743    -22.741290
   2.68263    -22.741265
   2.68783    -22.741240
   2.69302    -22.741218
   2.69822    -22.741196
   2.70342    -22.741174
   2.70861    -22.741155
   2.71381    -22.741136
   2.71901    -22.741119
   2.72420    -22.741105
   2.72940    -22.741091
   2.73460    -22.741078
   2.73980    -22.741065
   2.74499    -22.741054
   2.75019    -22.741043
   2.75539    -22.741034
   2.76058    -22.741030
   2.76578    -22.741025
   2.77098    -22.741022
   2.77617    -22.741020
   2.78137    -22.741023
   2.78137    -22.741023
   2.78437    -22.741021
   2.78737    -22.741019
   2.79037    -22.741016
   2.79337    -22.741016
   2.79637    -22.741015
   2.79937    -22.741013
   2.80237    -22.741012
   2.80537    -22.741011
   2.80837    -22.741009
   2.81137    -22.741008
   2.81438    -22.741009
   2.81738    -22.741010
   2.82038    -22.741009
   2.82338    -22.741007
   2.82638    -22.741006
   2.82938    -22.741005
   2.83238    -22.741003
   2.83538    -22.741000
   2.83838    -22.740998
   2.84138    -22.740995
   2.84438    -22.740991
   2.84738    -22.740989
   2.85038    -22.740986
   2.85338    -22.740982
   2.85638    -22.740978
   2.85938    -22.740974
   2.86238    -22.740969
   2.86538    -22.740965
   2.86838    -22.740961
   2.87138    -22.740957
   2.87438    -22.740953
   2.87738    -22.740948
   2.88038    -22.740944
   2.88338    -22.740939
   2.88639    -22.740936
   2.88939    -22.740932
   2.89239    -22.740927
   2.89539    -22.740921
   2.89839    -22.740918
   2.90139    -22.740912
   2.90439    -22.740906
   2.90739    -22.740901
   2.91039    -22.740898
   2.91339    -22.740892
   2.91639    -22.740884
   2.91939    -22.740877
   2.92239    -22.740871
   2.92539    -22.740865
   2.92839    -22.740859
   2.93139    -22.740853
   2.93439    -22.740848
   2.93739    -22.740842
   2.94039    -22.740835
   2.94339    -22.740828
   2.94639    -22.740821
   2.94939    -22.740817
   2.95239    -22.740810
   2.95539    -22.740802
   2.95840    -22.740795
   2.96140    -22.740789
   2.96440    -22.740783
   2.96740    -22.740777
   2.97040    -22.740770
   2.97340    -22.740764
   2.97640    -22.740758
   2.97940    -22.740752
   2.98240    -22.740745
   2.98540    -22.740740
   2.98840    -22.740733
   2.99140    -22.740726
   2.99440    -22.740719
   2.99740    -22.740715
   3.00040    -22.740708
   3.00340    -22.740701
   3.00640    -22.740693
   3.00940    -22.740684
   3.01240    -22.740677
   3.01540    -22.740671
   3.01840    -22.740665
   3.02140    -22.740659
   3.02440    -22.740652
   3.02740    -22.740645
   3.03041    -22.740640
   3.03341    -22.740634
   3.03641    -22.740627
   3.03941    -22.740621
   3.04241    -22.740615
   3.04541    -22.740610
   3.04841    -22.740605
   3.05141    -22.740598
   3.05441    -22.740592
   3.05741    -22.740588
   3.06041    -22.740583
   3.06341    -22.740579
   3.06641    -22.740574
   3.06941    -22.740568
   3.07241    -22.740564
   3.07541    -22.740558
   3.07841    -22.740553
   3.08141    -22.740548
   3.08441    -22.740543
   3.08741    -22.740538
   3.09041    -22.740533
   3.09341    -22.740528
   3.09641    -22.740521
   3.09941    -22.740517
   3.10242    -22.740513
   3.10542    -22.740509
   3.10842    -22.740506
   3.11142    -22.740502
   3.11442    -22.740499
   3.11742    -22.740497
   3.12042    -22.740494
   3.12342    -22.740493
   3.12642    -22.740489
   3.12942    -22.740487
   3.13242    -22.740486
   3.13542    -22.740484
   3.13842    -22.740485
   3.14142    -22.740485
   3.14442    -22.740484
   3.14742    -22.740483
   3.15042    -22.740484
   3.15342    -22.740486
   3.15642    -22.740485
   3.15942    -22.740485
   3.16242    -22.740487
   3.16242    -22.740487
   3.16842    -22.740487
   3.17443    -22.740488
   3.18043    -22.740485
   3.18643    -22.740487
   3.19243    -22.740490
   3.19843    -22.740494
   3.20443    -22.740497
   3.21043    -22.740505
   3.21643    -22.740512
   3.22243    -22.740521
   3.22843    -22.740533
   3.23443    -22.740544
   3.24043    -22.740555
   3.24644    -22.740569
   3.25244    -22.740586
   3.25844    -22.740602
   3.26444    -22.740620
   3.27044    -22.740637
   3.27644    -22.740658
   3.28244    -22.740680
   3.28844    -22.740705
   3.29444    -22.740729
   3.30044    -22.740755
   3.30644    -22.740782
   3.31244    -22.740809
   3.31845    -22.740839
   3.32445    -22.740870
   3.33045    -22.740901
