#K-Path(1/A) Energy-Level(eV)
# NKPTS & NBANDS: 896  58
# Band-Index    1
   0.00000    -22.733711
   0.00519    -22.733710
   0.01037    -22.733709
   0.01556    -22.733704
   0.02074    -22.733698
   0.02593    -22.733689
   0.03111    -22.733684
   0.03630    -22.733676
   0.04149    -22.733668
   0.04667    -22.733656
   0.05186    -22.733643
   0.05704    -22.733630
   0.06223    -22.733616
   0.06741    -22.733600
   0.07260    -22.733581
   0.07778    -22.733562
   0.08297    -22.733542
   0.08816    -22.733525
   0.09334    -22.733503
   0.09853    -22.733478
   0.10371    -22.733452
   0.10890    -22.733428
   0.11408    -22.733400
   0.11927    -22.733372
   0.12446    -22.733344
   0.12964    -22.733315
   0.13483    -22.733284
   0.14001    -22.733251
   0.14520    -22.733219
   0.15038    -22.733185
   0.15557    -22.733150
   0.16076    -22.733113
   0.16594    -22.733076
   0.17113    -22.733038
   0.17631    -22.733001
   0.18150    -22.732961
   0.18668    -22.732920
   0.19187    -22.732877
   0.19706    -22.732834
   0.20224    -22.732792
   0.20743    -22.732747
   0.21261    -22.732701
   0.21780    -22.732659
   0.22298    -22.732612
   0.22817    -22.732564
   0.23335    -22.732515
   0.23854    -22.732468
   0.24373    -22.732420
   0.24891    -22.732371
   0.25410    -22.732321
   0.25928    -22.732268
   0.26447    -22.732219
   0.26965    -22.732169
   0.27484    -22.732119
   0.28003    -22.732068
   0.28521    -22.732017
   0.29040    -22.731964
   0.29558    -22.731911
   0.30077    -22.731859
   0.30595    -22.731804
   0.31114    -22.731749
   0.31633    -22.731692
   0.32151    -22.731638
   0.32670    -22.731584
   0.33188    -22.731532
   0.33707    -22.731478
   0.34225    -22.731425
   0.34744    -22.731375
   0.35262    -22.731325
   0.35781    -22.731271
   0.36300    -22.731217
   0.36818    -22.731162
   0.37337    -22.731110
   0.37855    -22.731057
   0.38374    -22.731006
   0.38892    -22.730954
   0.39411    -22.730903
   0.39930    -22.730851
   0.40448    -22.730801
   0.40967    -22.730751
   0.41485    -22.730702
   0.42004    -22.730652
   0.42522    -22.730604
   0.43041    -22.730556
   0.43560    -22.730509
   0.44078    -22.730465
   0.44597    -22.730417
   0.45115    -22.730370
   0.45634    -22.730326
   0.46152    -22.730285
   0.46671    -22.730243
   0.47190    -22.730204
   0.47708    -22.730163
   0.48227    -22.730123
   0.48745    -22.730084
   0.49264    -22.730045
   0.49782    -22.730007
   0.50301    -22.729970
   0.50819    -22.729933
   0.51338    -22.729898
   0.51857    -22.729866
   0.52375    -22.729833
   0.52894    -22.729802
   0.53412    -22.729771
   0.53931    -22.729742
   0.54449    -22.729714
   0.54968    -22.729687
   0.55487    -22.729660
   0.56005    -22.729634
   0.56524    -22.729608
   0.57042    -22.729586
   0.57561    -22.729566
   0.58079    -22.729545
   0.58598    -22.729525
   0.59117    -22.729506
   0.59635    -22.729491
   0.60154    -22.729475
   0.60672    -22.729460
   0.61191    -22.729446
   0.61709    -22.729434
   0.62228    -22.729425
   0.62747    -22.729417
   0.63265    -22.729409
   0.63784    -22.729403
   0.64302    -22.729399
   0.64821    -22.729395
   0.65339    -22.729393
   0.65858    -22.729395
   0.65858    -22.729395
   0.66157    -22.729394
   0.66457    -22.729394
   0.66756    -22.729393
   0.67055    -22.729393
   0.67355    -22.729392
   0.67654    -22.729391
   0.67954    -22.729390
   0.68253    -22.729389
   0.68552    -22.729387
   0.68852    -22.729385
   0.69151    -22.729384
   0.69451    -22.729381
   0.69750    -22.729379
   0.70049    -22.729378
   0.70349    -22.729375
   0.70648    -22.729373
   0.70948    -22.729370
   0.71247    -22.729369
   0.71546    -22.729366
   0.71846    -22.729362
   0.72145    -22.729359
   0.72445    -22.729355
   0.72744    -22.729354
   0.73043    -22.729351
   0.73343    -22.729347
   0.73642    -22.729344
   0.73942    -22.729340
   0.74241    -22.729338
   0.74540    -22.729334
   0.74840    -22.729330
   0.75139    -22.729326
   0.75439    -22.729324
   0.75738    -22.729321
   0.76037    -22.729317
   0.76337    -22.729314
   0.76636    -22.729309
   0.76935    -22.729305
   0.77235    -22.729300
   0.77534    -22.729295
   0.77834    -22.729290
   0.78133    -22.729284
   0.78432    -22.729281
   0.78732    -22.729276
   0.79031    -22.729271
   0.79331    -22.729266
   0.79630    -22.729260
   0.79929    -22.729255
   0.80229    -22.729249
   0.80528    -22.729243
   0.80828    -22.729237
   0.81127    -22.729231
   0.81426    -22.729225
   0.81726    -22.729217
   0.82025    -22.729211
   0.82325    -22.729205
   0.82624    -22.729199
   0.82923    -22.729192
   0.83223    -22.729186
   0.83522    -22.729181
   0.83822    -22.729171
   0.84121    -22.729164
   0.84420    -22.729158
   0.84720    -22.729151
   0.85019    -22.729146
   0.85319    -22.729140
   0.85618    -22.729134
   0.85917    -22.729128
   0.86217    -22.729122
   0.86516    -22.729115
   0.86816    -22.729108
   0.87115    -22.729100
   0.87414    -22.729094
   0.87714    -22.729088
   0.88013    -22.729083
   0.88312    -22.729075
   0.88612    -22.729069
   0.88911    -22.729061
   0.89211    -22.729055
   0.89510    -22.729048
   0.89809    -22.729042
   0.90109    -22.729035
   0.90408    -22.729029
   0.90708    -22.729024
   0.91007    -22.729018
   0.91306    -22.729011
   0.91606    -22.729005
   0.91905    -22.729001
   0.92205    -22.728996
   0.92504    -22.728990
   0.92803    -22.728985
   0.93103    -22.728979
   0.93402    -22.728974
   0.93702    -22.728967
   0.94001    -22.728960
   0.94300    -22.728953
   0.94600    -22.728949
   0.94899    -22.728944
   0.95199    -22.728939
   0.95498    -22.728936
   0.95797    -22.728930
   0.96097    -22.728925
   0.96396    -22.728922
   0.96696    -22.728917
   0.96995    -22.728913
   0.97294    -22.728908
   0.97594    -22.728902
   0.97893    -22.728898
   0.98192    -22.728894
   0.98492    -22.728890
   0.98791    -22.728886
   0.99091    -22.728883
   0.99390    -22.728880
   0.99689    -22.728877
   0.99989    -22.728873
   1.00288    -22.728872
   1.00588    -22.728870
   1.00887    -22.728867
   1.01186    -22.728867
   1.01486    -22.728866
   1.01785    -22.728865
   1.02085    -22.728863
   1.02384    -22.728860
   1.02683    -22.728859
   1.02983    -22.728858
   1.03282    -22.728858
   1.03582    -22.728858
   1.03881    -22.728857
   1.03881    -22.728857
   1.04480    -22.728858
   1.05079    -22.728859
   1.05677    -22.728862
   1.06276    -22.728866
   1.06875    -22.728869
   1.07474    -22.728873
   1.08073    -22.728882
   1.08671    -22.728890
   1.09270    -22.728896
   1.09869    -22.728908
   1.10468    -22.728919
   1.11066    -22.728930
   1.11665    -22.728944
   1.12264    -22.728959
   1.12863    -22.728971
   1.13462    -22.728988
   1.14060    -22.729006
   1.14659    -22.729025
   1.15258    -22.729044
   1.15857    -22.729065
   1.16456    -22.729086
   1.17054    -22.729110
   1.17653    -22.729135
   1.18252    -22.729160
   1.18851    -22.729186
   1.19449    -22.729214
   1.20048    -22.729246
   1.20647    -22.729276
   1.21246    -22.729308
   1.21845    -22.729342
   1.22443    -22.729377
   1.23042    -22.729411
   1.23641    -22.729447
   1.24240    -22.729486
   1.24839    -22.729522
   1.25437    -22.729561
   1.26036    -22.729602
   1.26635    -22.729646
   1.27234    -22.729690
   1.27833    -22.729735
   1.28431    -22.729780
   1.29030    -22.729831
   1.29629    -22.729879
   1.30228    -22.729926
   1.30826    -22.729975
   1.31425    -22.730022
   1.32024    -22.730070
   1.32623    -22.730121
   1.33222    -22.730174
   1.33820    -22.730228
   1.34419    -22.730285
   1.35018    -22.730342
   1.35617    -22.730399
   1.36216    -22.730456
   1.36814    -22.730514
   1.37413    -22.730573
   1.38012    -22.730631
   1.38611    -22.730690
   1.39210    -22.730751
   1.39808    -22.730812
   1.40407    -22.730871
   1.41006    -22.730933
   1.41605    -22.730995
   1.42203    -22.731056
   1.42802    -22.731118
   1.43401    -22.731180
   1.44000    -22.731242
   1.44599    -22.731305
   1.45197    -22.731368
   1.45796    -22.731430
   1.46395    -22.731492
   1.46994    -22.731555
   1.47593    -22.731617
   1.48191    -22.731677
   1.48790    -22.731738
   1.49389    -22.731799
   1.49988    -22.731861
   1.50586    -22.731928
   1.51185    -22.731990
   1.51784    -22.732050
   1.52383    -22.732107
   1.52982    -22.732168
   1.53580    -22.732228
   1.54179    -22.732289
   1.54778    -22.732346
   1.55377    -22.732403
   1.55976    -22.732459
   1.56574    -22.732515
   1.57173    -22.732570
   1.57772    -22.732625
   1.58371    -22.732678
   1.58970    -22.732731
   1.59568    -22.732780
   1.60167    -22.732833
   1.60766    -22.732881
   1.61365    -22.732928
   1.61963    -22.732975
   1.62562    -22.733021
   1.63161    -22.733065
   1.63760    -22.733107
   1.64359    -22.733151
   1.64957    -22.733189
   1.65556    -22.733229
   1.66155    -22.733270
   1.66754    -22.733307
   1.67353    -22.733341
   1.67951    -22.733375
   1.68550    -22.733405
   1.69149    -22.733436
   1.69748    -22.733464
   1.70347    -22.733491
   1.70945    -22.733517
   1.71544    -22.733542
   1.72143    -22.733565
   1.72742    -22.733583
   1.73340    -22.733604
   1.73939    -22.733622
   1.74538    -22.733640
   1.75137    -22.733656
   1.75736    -22.733666
   1.76334    -22.733676
   1.76933    -22.733685
   1.77532    -22.733692
   1.78131    -22.733700
   1.78730    -22.733708
   1.79328    -22.733710
   1.79927    -22.733711
   1.79927    -22.733711
   1.80179    -22.733711
   1.80430    -22.733711
   1.80681    -22.733712
   1.80933    -22.733712
   1.81184    -22.733712
   1.81435    -22.733712
   1.81687    -22.733712
   1.81938    -22.733709
   1.82189    -22.733709
   1.82441    -22.733707
   1.82692    -22.733707
   1.82944    -22.733707
   1.83195    -22.733707
   1.83446    -22.733707
   1.83698    -22.733707
   1.83949    -22.733707
   1.84200    -22.733704
   1.84452    -22.733705
   1.84703    -22.733705
   1.84955    -22.733705
   1.85206    -22.733705
   1.85457    -22.733705
   1.85709    -22.733705
   1.85960    -22.733706
   1.86211    -22.733706
   1.86463    -22.733705
   1.86714    -22.733709
   1.86966    -22.733709
   1.87217    -22.733709
   1.87468    -22.733709
   1.87720    -22.733709
   1.87971    -22.733709
   1.88222    -22.733709
   1.88474    -22.733709
   1.88725    -22.733709
   1.88977    -22.733709
   1.89228    -22.733709
   1.89479    -22.733709
   1.89731    -22.733709
   1.89982    -22.733711
   1.90233    -22.733712
   1.90485    -22.733712
   1.90736    -22.733712
   1.90988    -22.733712
   1.91239    -22.733718
   1.91490    -22.733718
   1.91742    -22.733718
   1.91993    -22.733718
   1.92244    -22.733718
   1.92496    -22.733718
   1.92747    -22.733718
   1.92999    -22.733718
   1.93250    -22.733718
   1.93501    -22.733718
   1.93753    -22.733726
   1.94004    -22.733726
   1.94255    -22.733726
   1.94507    -22.733726
   1.94758    -22.733726
   1.95010    -22.733726
   1.95261    -22.733722
   1.95512    -22.733722
   1.95764    -22.733722
   1.96015    -22.733718
   1.96266    -22.733718
   1.96518    -22.733718
   1.96769    -22.733718
   1.97021    -22.733718
   1.97272    -22.733718
   1.97523    -22.733718
   1.97775    -22.733718
   1.98026    -22.733718
   1.98277    -22.733718
   1.98529    -22.733718
   1.98780    -22.733718
   1.99032    -22.733718
   1.99283    -22.733718
   1.99534    -22.733718
   1.99786    -22.733718
   2.00037    -22.733718
   2.00288    -22.733718
   2.00540    -22.733720
   2.00791    -22.733720
   2.01043    -22.733716
   2.01294    -22.733716
   2.01545    -22.733713
   2.01797    -22.733713
   2.02048    -22.733714
   2.02299    -22.733714
   2.02551    -22.733717
   2.02802    -22.733717
   2.03054    -22.733716
   2.03305    -22.733716
   2.03556    -22.733716
   2.03808    -22.733716
   2.04059    -22.733716
   2.04310    -22.733716
   2.04562    -22.733716
   2.04813    -22.733714
   2.05064    -22.733714
   2.05316    -22.733714
   2.05567    -22.733714
   2.05819    -22.733714
   2.06070    -22.733714
   2.06321    -22.733714
   2.06573    -22.733714
   2.06824    -22.733716
   2.07075    -22.733716
   2.07327    -22.733716
   2.07578    -22.733716
   2.07830    -22.733716
   2.08081    -22.733716
   2.08332    -22.733716
   2.08584    -22.733716
   2.08835    -22.733716
   2.09086    -22.733716
   2.09338    -22.733714
   2.09589    -22.733712
   2.09841    -22.733712
   2.10092    -22.733712
   2.10343    -22.733716
   2.10595    -22.733716
   2.10846    -22.733716
   2.11097    -22.733712
   2.11349    -22.733712
   2.11600    -22.733712
   2.11852    -22.733712
   2.11852    -22.733712
   2.12370    -22.733711
   2.12889    -22.733709
   2.13407    -22.733707
   2.13926    -22.733704
   2.14444    -22.733698
   2.14963    -22.733690
   2.15482    -22.733684
   2.16000    -22.733675
   2.16519    -22.733665
   2.17037    -22.733653
   2.17556    -22.733639
   2.18074    -22.733624
   2.18593    -22.733609
   2.19111    -22.733591
   2.19630    -22.733575
   2.20149    -22.733555
   2.20667    -22.733533
   2.21186    -22.733510
   2.21704    -22.733486
   2.22223    -22.733461
   2.22741    -22.733437
   2.23260    -22.733411
   2.23779    -22.733383
   2.24297    -22.733354
   2.24816    -22.733322
   2.25334    -22.733290
   2.25853    -22.733256
   2.26371    -22.733219
   2.26890    -22.733185
   2.27409    -22.733150
   2.27927    -22.733112
   2.28446    -22.733074
   2.28964    -22.733036
   2.29483    -22.732998
   2.30001    -22.732956
   2.30520    -22.732915
   2.31039    -22.732872
   2.31557    -22.732829
   2.32076    -22.732786
   2.32594    -22.732741
   2.33113    -22.732696
   2.33631    -22.732648
   2.34150    -22.732603
   2.34668    -22.732555
   2.35187    -22.732508
   2.35706    -22.732460
   2.36224    -22.732411
   2.36743    -22.732362
   2.37261    -22.732309
   2.37780    -22.732260
   2.38298    -22.732209
   2.38817    -22.732160
   2.39336    -22.732111
   2.39854    -22.732057
   2.40373    -22.732006
   2.40891    -22.731954
   2.41410    -22.731900
   2.41928    -22.731848
   2.42447    -22.731797
   2.42966    -22.731746
   2.43484    -22.731689
   2.44003    -22.731635
   2.44521    -22.731582
   2.45040    -22.731527
   2.45558    -22.731473
   2.46077    -22.731419
   2.46596    -22.731366
   2.47114    -22.731313
   2.47633    -22.731261
   2.48151    -22.731210
   2.48670    -22.731156
   2.49188    -22.731106
   2.49707    -22.731054
   2.50225    -22.731002
   2.50744    -22.730955
   2.51263    -22.730902
   2.51781    -22.730851
   2.52300    -22.730803
   2.52818    -22.730753
   2.53337    -22.730704
   2.53855    -22.730656
   2.54374    -22.730609
   2.54893    -22.730563
   2.55411    -22.730515
   2.55930    -22.730469
   2.56448    -22.730422
   2.56967    -22.730376
   2.57485    -22.730332
   2.58004    -22.730288
   2.58523    -22.730242
   2.59041    -22.730200
   2.59560    -22.730158
   2.60078    -22.730117
   2.60597    -22.730078
   2.61115    -22.730041
   2.61634    -22.730005
   2.62152    -22.729968
   2.62671    -22.729933
   2.63190    -22.729899
   2.63708    -22.729865
   2.64227    -22.729834
   2.64745    -22.729803
   2.65264    -22.729771
   2.65782    -22.729742
   2.66301    -22.729712
   2.66820    -22.729684
   2.67338    -22.729659
   2.67857    -22.729634
   2.68375    -22.729611
   2.68894    -22.729589
   2.69412    -22.729567
   2.69931    -22.729549
   2.70450    -22.729531
   2.70968    -22.729512
   2.71487    -22.729497
   2.72005    -22.729480
   2.72524    -22.729465
   2.73042    -22.729453
   2.73561    -22.729443
   2.74080    -22.729434
   2.74598    -22.729424
   2.75117    -22.729416
   2.75635    -22.729413
   2.76154    -22.729410
   2.76672    -22.729406
   2.77191    -22.729404
   2.77709    -22.729404
   2.77709    -22.729404
   2.78009    -22.729402
   2.78308    -22.729402
   2.78608    -22.729402
   2.78907    -22.729404
   2.79206    -22.729403
   2.79506    -22.729401
   2.79805    -22.729400
   2.80105    -22.729399
   2.80404    -22.729396
   2.80703    -22.729394
   2.81003    -22.729392
   2.81302    -22.729388
   2.81602    -22.729387
   2.81901    -22.729386
   2.82200    -22.729384
   2.82500    -22.729382
   2.82799    -22.729382
   2.83099    -22.729379
   2.83398    -22.729377
   2.83697    -22.729374
   2.83997    -22.729371
   2.84296    -22.729368
   2.84596    -22.729364
   2.84895    -22.729361
   2.85194    -22.729356
   2.85494    -22.729353
   2.85793    -22.729349
   2.86093    -22.729345
   2.86392    -22.729343
   2.86691    -22.729339
   2.86991    -22.729336
   2.87290    -22.729330
   2.87589    -22.729326
   2.87889    -22.729323
   2.88188    -22.729319
   2.88488    -22.729313
   2.88787    -22.729308
   2.89086    -22.729304
   2.89386    -22.729299
   2.89685    -22.729293
   2.89985    -22.729288
   2.90284    -22.729280
   2.90583    -22.729275
   2.90883    -22.729272
   2.91182    -22.729266
   2.91482    -22.729260
   2.91781    -22.729254
   2.92080    -22.729248
   2.92380    -22.729242
   2.92679    -22.729236
   2.92979    -22.729232
   2.93278    -22.729224
   2.93577    -22.729217
   2.93877    -22.729211
   2.94176    -22.729206
   2.94476    -22.729200
   2.94775    -22.729193
   2.95074    -22.729188
   2.95374    -22.729181
   2.95673    -22.729174
   2.95973    -22.729166
   2.96272    -22.729159
   2.96571    -22.729153
   2.96871    -22.729148
   2.97170    -22.729141
   2.97470    -22.729135
   2.97769    -22.729131
   2.98068    -22.729124
   2.98368    -22.729116
   2.98667    -22.729110
   2.98966    -22.729103
   2.99266    -22.729097
   2.99565    -22.729090
   2.99865    -22.729085
   3.00164    -22.729078
   3.00463    -22.729071
   3.00763    -22.729064
   3.01062    -22.729057
   3.01362    -22.729055
   3.01661    -22.729048
   3.01960    -22.729042
   3.02260    -22.729037
   3.02559    -22.729029
   3.02859    -22.729023
   3.03158    -22.729015
   3.03457    -22.729010
   3.03757    -22.729004
   3.04056    -22.728997
   3.04356    -22.728992
   3.04655    -22.728986
   3.04954    -22.728981
   3.05254    -22.728975
   3.05553    -22.728971
   3.05853    -22.728966
   3.06152    -22.728960
   3.06451    -22.728955
   3.06751    -22.728950
   3.07050    -22.728945
   3.07350    -22.728940
   3.07649    -22.728935
   3.07948    -22.728931
   3.08248    -22.728928
   3.08547    -22.728922
   3.08846    -22.728918
   3.09146    -22.728914
   3.09445    -22.728909
   3.09745    -22.728906
   3.10044    -22.728902
   3.10343    -22.728897
   3.10643    -22.728894
   3.10942    -22.728890
   3.11242    -22.728888
   3.11541    -22.728886
   3.11840    -22.728884
   3.12140    -22.728884
   3.12439    -22.728884
   3.12739    -22.728883
   3.13038    -22.728882
   3.13337    -22.728881
   3.13637    -22.728880
   3.13936    -22.728879
   3.14236    -22.728877
   3.14535    -22.728876
   3.14834    -22.728875
   3.15134    -22.728875
   3.15433    -22.728874
   3.15733    -22.728874
   3.15733    -22.728874
   3.16331    -22.728875
   3.16930    -22.728875
   3.17529    -22.728879
   3.18128    -22.728882
   3.18726    -22.728885
   3.19325    -22.728889
   3.19924    -22.728890
   3.20523    -22.728897
   3.21122    -22.728903
   3.21720    -22.728914
   3.22319    -22.728924
   3.22918    -22.728935
   3.23517    -22.728949
   3.24116    -22.728963
   3.24714    -22.728978
   3.25313    -22.728994
   3.25912    -22.729010
   3.26511    -22.729029
   3.27110    -22.729049
   3.27708    -22.729071
   3.28307    -22.729091
   3.28906    -22.729115
   3.29505    -22.729140
   3.30103    -22.729168
   3.30702    -22.729196
   3.31301    -22.729224
   3.31900    -22.729255
   3.32499    -22.729284
