#K-Path(1/A) Energy-Level(eV)
# NKPTS & NBANDS: 896  58
# Band-Index    1
   0.00000    -22.736851
   0.00520    -22.736853
   0.01040    -22.736847
   0.01560    -22.736844
   0.02081    -22.736838
   0.02601    -22.736831
   0.03121    -22.736823
   0.03641    -22.736814
   0.04161    -22.736805
   0.04681    -22.736794
   0.05201    -22.736782
   0.05722    -22.736768
   0.06242    -22.736754
   0.06762    -22.736740
   0.07282    -22.736722
   0.07802    -22.736702
   0.08322    -22.736682
   0.08842    -22.736663
   0.09363    -22.736640
   0.09883    -22.736613
   0.10403    -22.736588
   0.10923    -22.736563
   0.11443    -22.736536
   0.11963    -22.736509
   0.12483    -22.736480
   0.13004    -22.736448
   0.13524    -22.736416
   0.14044    -22.736383
   0.14564    -22.736350
   0.15084    -22.736313
   0.15604    -22.736276
   0.16124    -22.736238
   0.16645    -22.736199
   0.17165    -22.736160
   0.17685    -22.736120
   0.18205    -22.736078
   0.18725    -22.736038
   0.19245    -22.735994
   0.19765    -22.735949
   0.20286    -22.735903
   0.20806    -22.735859
   0.21326    -22.735812
   0.21846    -22.735764
   0.22366    -22.735719
   0.22886    -22.735670
   0.23406    -22.735620
   0.23927    -22.735570
   0.24447    -22.735519
   0.24967    -22.735468
   0.25487    -22.735415
   0.26007    -22.735363
   0.26527    -22.735312
   0.27047    -22.735257
   0.27568    -22.735204
   0.28088    -22.735151
   0.28608    -22.735094
   0.29128    -22.735040
   0.29648    -22.734986
   0.30168    -22.734931
   0.30688    -22.734876
   0.31209    -22.734820
   0.31729    -22.734766
   0.32249    -22.734711
   0.32769    -22.734657
   0.33289    -22.734602
   0.33809    -22.734545
   0.34329    -22.734489
   0.34850    -22.734432
   0.35370    -22.734378
   0.35890    -22.734322
   0.36410    -22.734266
   0.36930    -22.734210
   0.37450    -22.734155
   0.37970    -22.734104
   0.38491    -22.734050
   0.39011    -22.733997
   0.39531    -22.733944
   0.40051    -22.733892
   0.40571    -22.733841
   0.41091    -22.733786
   0.41611    -22.733733
   0.42132    -22.733679
   0.42652    -22.733631
   0.43172    -22.733581
   0.43692    -22.733532
   0.44212    -22.733486
   0.44732    -22.733440
   0.45252    -22.733392
   0.45773    -22.733345
   0.46293    -22.733300
   0.46813    -22.733258
   0.47333    -22.733214
   0.47853    -22.733172
   0.48373    -22.733130
   0.48893    -22.733090
   0.49414    -22.733050
   0.49934    -22.733012
   0.50454    -22.732974
   0.50974    -22.732939
   0.51494    -22.732903
   0.52014    -22.732867
   0.52534    -22.732834
   0.53055    -22.732803
   0.53575    -22.732770
   0.54095    -22.732738
   0.54615    -22.732707
   0.55135    -22.732678
   0.55655    -22.732651
   0.56175    -22.732628
   0.56696    -22.732601
   0.57216    -22.732577
   0.57736    -22.732553
   0.58256    -22.732533
   0.58776    -22.732510
   0.59296    -22.732490
   0.59816    -22.732476
   0.60337    -22.732461
   0.60857    -22.732448
   0.61377    -22.732435
   0.61897    -22.732422
   0.62417    -22.732412
   0.62937    -22.732403
   0.63457    -22.732396
   0.63977    -22.732390
   0.64498    -22.732387
   0.65018    -22.732382
   0.65538    -22.732379
   0.66058    -22.732378
   0.66058    -22.732378
   0.66358    -22.732377
   0.66659    -22.732379
   0.66959    -22.732379
   0.67259    -22.732378
   0.67560    -22.732376
   0.67860    -22.732375
   0.68160    -22.732373
   0.68460    -22.732373
   0.68761    -22.732373
   0.69061    -22.732372
   0.69361    -22.732371
   0.69662    -22.732371
   0.69962    -22.732368
   0.70262    -22.732366
   0.70563    -22.732363
   0.70863    -22.732361
   0.71163    -22.732358
   0.71464    -22.732356
   0.71764    -22.732353
   0.72064    -22.732350
   0.72364    -22.732345
   0.72665    -22.732341
   0.72965    -22.732338
   0.73265    -22.732337
   0.73566    -22.732333
   0.73866    -22.732332
   0.74166    -22.732328
   0.74467    -22.732324
   0.74767    -22.732320
   0.75067    -22.732316
   0.75367    -22.732311
   0.75668    -22.732307
   0.75968    -22.732302
   0.76268    -22.732300
   0.76569    -22.732294
   0.76869    -22.732289
   0.77169    -22.732283
   0.77470    -22.732278
   0.77770    -22.732275
   0.78070    -22.732270
   0.78371    -22.732265
   0.78671    -22.732258
   0.78971    -22.732252
   0.79271    -22.732247
   0.79572    -22.732243
   0.79872    -22.732238
   0.80172    -22.732233
   0.80473    -22.732227
   0.80773    -22.732220
   0.81073    -22.732215
   0.81374    -22.732208
   0.81674    -22.732203
   0.81974    -22.732196
   0.82274    -22.732189
   0.82575    -22.732183
   0.82875    -22.732177
   0.83175    -22.732170
   0.83476    -22.732162
   0.83776    -22.732154
   0.84076    -22.732147
   0.84377    -22.732140
   0.84677    -22.732133
   0.84977    -22.732127
   0.85278    -22.732120
   0.85578    -22.732113
   0.85878    -22.732105
   0.86178    -22.732098
   0.86479    -22.732090
   0.86779    -22.732083
   0.87079    -22.732075
   0.87380    -22.732071
   0.87680    -22.732064
   0.87980    -22.732057
   0.88281    -22.732051
   0.88581    -22.732044
   0.88881    -22.732037
   0.89181    -22.732032
   0.89482    -22.732025
   0.89782    -22.732017
   0.90082    -22.732011
   0.90383    -22.732004
   0.90683    -22.731998
   0.90983    -22.731991
   0.91284    -22.731985
   0.91584    -22.731977
   0.91884    -22.731971
   0.92185    -22.731964
   0.92485    -22.731957
   0.92785    -22.731951
   0.93085    -22.731944
   0.93386    -22.731940
   0.93686    -22.731934
   0.93986    -22.731927
   0.94287    -22.731920
   0.94587    -22.731915
   0.94887    -22.731909
   0.95188    -22.731906
   0.95488    -22.731901
   0.95788    -22.731898
   0.96088    -22.731893
   0.96389    -22.731888
   0.96689    -22.731882
   0.96989    -22.731878
   0.97290    -22.731875
   0.97590    -22.731870
   0.97890    -22.731866
   0.98191    -22.731864
   0.98491    -22.731859
   0.98791    -22.731854
   0.99092    -22.731850
   0.99392    -22.731846
   0.99692    -22.731843
   0.99992    -22.731839
   1.00293    -22.731836
   1.00593    -22.731834
   1.00893    -22.731831
   1.01194    -22.731829
   1.01494    -22.731827
   1.01794    -22.731822
   1.02095    -22.731821
   1.02395    -22.731820
   1.02695    -22.731819
   1.02995    -22.731821
   1.03296    -22.731820
   1.03596    -22.731821
   1.03896    -22.731821
   1.04197    -22.731821
   1.04197    -22.731821
   1.04797    -22.731820
   1.05398    -22.731821
   1.05999    -22.731821
   1.06599    -22.731823
   1.07200    -22.731827
   1.07800    -22.731835
   1.08401    -22.731842
   1.09002    -22.731851
   1.09602    -22.731859
   1.10203    -22.731870
   1.10803    -22.731882
   1.11404    -22.731895
   1.12005    -22.731912
   1.12605    -22.731926
   1.13206    -22.731942
   1.13806    -22.731958
   1.14407    -22.731977
   1.15008    -22.731997
   1.15608    -22.732018
   1.16209    -22.732039
   1.16809    -22.732061
   1.17410    -22.732086
   1.18011    -22.732113
   1.18611    -22.732141
   1.19212    -22.732169
   1.19813    -22.732198
   1.20413    -22.732228
   1.21014    -22.732260
   1.21614    -22.732292
   1.22215    -22.732324
   1.22816    -22.732360
   1.23416    -22.732395
   1.24017    -22.732432
   1.24617    -22.732470
   1.25218    -22.732509
   1.25819    -22.732551
   1.26419    -22.732593
   1.27020    -22.732638
   1.27620    -22.732682
   1.28221    -22.732727
   1.28822    -22.732774
   1.29422    -22.732825
   1.30023    -22.732875
   1.30623    -22.732926
   1.31224    -22.732977
   1.31825    -22.733028
   1.32425    -22.733081
   1.33026    -22.733137
   1.33627    -22.733192
   1.34227    -22.733248
   1.34828    -22.733302
   1.35428    -22.733358
   1.36029    -22.733419
   1.36630    -22.733478
   1.37230    -22.733538
   1.37831    -22.733598
   1.38431    -22.733660
   1.39032    -22.733724
   1.39633    -22.733786
   1.40233    -22.733849
   1.40834    -22.733912
   1.41434    -22.733975
   1.42035    -22.734039
   1.42636    -22.734103
   1.43236    -22.734168
   1.43837    -22.734232
   1.44437    -22.734298
   1.45038    -22.734363
   1.45639    -22.734424
   1.46239    -22.734489
   1.46840    -22.734553
   1.47441    -22.734619
   1.48041    -22.734685
   1.48642    -22.734751
   1.49242    -22.734816
   1.49843    -22.734881
   1.50444    -22.734945
   1.51044    -22.735007
   1.51645    -22.735071
   1.52245    -22.735134
   1.52846    -22.735196
   1.53447    -22.735257
   1.54047    -22.735319
   1.54648    -22.735380
   1.55248    -22.735441
   1.55849    -22.735501
   1.56450    -22.735560
   1.57050    -22.735618
   1.57651    -22.735676
   1.58251    -22.735729
   1.58852    -22.735785
   1.59453    -22.735840
   1.60053    -22.735894
   1.60654    -22.735947
   1.61255    -22.735997
   1.61855    -22.736047
   1.62456    -22.736098
   1.63056    -22.736144
   1.63657    -22.736188
   1.64258    -22.736234
   1.64858    -22.736277
   1.65459    -22.736318
   1.66059    -22.736356
   1.66660    -22.736395
   1.67261    -22.736431
   1.67861    -22.736467
   1.68462    -22.736501
   1.69062    -22.736535
   1.69663    -22.736566
   1.70264    -22.736598
   1.70864    -22.736626
   1.71465    -22.736652
   1.72065    -22.736678
   1.72666    -22.736701
   1.73267    -22.736725
   1.73867    -22.736746
   1.74468    -22.736764
   1.75069    -22.736779
   1.75669    -22.736791
   1.76270    -22.736804
   1.76870    -22.736816
   1.77471    -22.736826
   1.78072    -22.736836
   1.78672    -22.736842
   1.79273    -22.736846
   1.79873    -22.736852
   1.80474    -22.736851
   1.80474    -22.736851
   1.80724    -22.736852
   1.80974    -22.736852
   1.81224    -22.736852
   1.81474    -22.736849
   1.81725    -22.736847
   1.81975    -22.736847
   1.82225    -22.736847
   1.82475    -22.736847
   1.82725    -22.736846
   1.82975    -22.736846
   1.83225    -22.736846
   1.83475    -22.736848
   1.83725    -22.736852
   1.83976    -22.736852
   1.84226    -22.736852
   1.84476    -22.736852
   1.84726    -22.736852
   1.84976    -22.736852
   1.85226    -22.736848
   1.85476    -22.736848
   1.85726    -22.736850
   1.85976    -22.736850
   1.86226    -22.736852
   1.86477    -22.736852
   1.86727    -22.736852
   1.86977    -22.736852
   1.87227    -22.736853
   1.87477    -22.736853
   1.87727    -22.736853
   1.87977    -22.736853
   1.88227    -22.736853
   1.88477    -22.736853
   1.88728    -22.736853
   1.88978    -22.736857
   1.89228    -22.736857
   1.89478    -22.736857
   1.89728    -22.736857
   1.89978    -22.736861
   1.90228    -22.736861
   1.90478    -22.736863
   1.90728    -22.736863
   1.90979    -22.736863
   1.91229    -22.736866
   1.91479    -22.736863
   1.91729    -22.736867
   1.91979    -22.736867
   1.92229    -22.736867
   1.92479    -22.736867
   1.92729    -22.736867
   1.92979    -22.736867
   1.93230    -22.736867
   1.93480    -22.736871
   1.93730    -22.736871
   1.93980    -22.736871
   1.94230    -22.736871
   1.94480    -22.736871
   1.94730    -22.736871
   1.94980    -22.736871
   1.95230    -22.736871
   1.95480    -22.736870
   1.95731    -22.736870
   1.95981    -22.736870
   1.96231    -22.736870
   1.96481    -22.736870
   1.96731    -22.736870
   1.96981    -22.736867
   1.97231    -22.736867
   1.97481    -22.736869
   1.97731    -22.736869
   1.97982    -22.736869
   1.98232    -22.736869
   1.98482    -22.736869
   1.98732    -22.736865
   1.98982    -22.736865
   1.99232    -22.736865
   1.99482    -22.736865
   1.99732    -22.736865
   1.99982    -22.736865
   2.00233    -22.736861
   2.00483    -22.736861
   2.00733    -22.736861
   2.00983    -22.736861
   2.01233    -22.736861
   2.01483    -22.736861
   2.01733    -22.736863
   2.01983    -22.736863
   2.02233    -22.736863
   2.02484    -22.736863
   2.02734    -22.736862
   2.02984    -22.736862
   2.03234    -22.736868
   2.03484    -22.736868
   2.03734    -22.736868
   2.03984    -22.736868
   2.04234    -22.736868
   2.04484    -22.736868
   2.04735    -22.736868
   2.04985    -22.736868
   2.05235    -22.736868
   2.05485    -22.736868
   2.05735    -22.736868
   2.05985    -22.736864
   2.06235    -22.736864
   2.06485    -22.736864
   2.06735    -22.736868
   2.06985    -22.736868
   2.07236    -22.736868
   2.07486    -22.736868
   2.07736    -22.736868
   2.07986    -22.736868
   2.08236    -22.736866
   2.08486    -22.736866
   2.08736    -22.736866
   2.08986    -22.736866
   2.09236    -22.736866
   2.09487    -22.736868
   2.09737    -22.736868
   2.09987    -22.736868
   2.10237    -22.736868
   2.10487    -22.736869
   2.10737    -22.736869
   2.10987    -22.736869
   2.11237    -22.736869
   2.11487    -22.736869
   2.11738    -22.736873
   2.11988    -22.736873
   2.12238    -22.736873
   2.12238    -22.736873
   2.12758    -22.736873
   2.13278    -22.736868
   2.13798    -22.736864
   2.14318    -22.736859
   2.14838    -22.736851
   2.15359    -22.736845
   2.15879    -22.736836
   2.16399    -22.736826
   2.16919    -22.736814
   2.17439    -22.736802
   2.17959    -22.736787
   2.18479    -22.736771
   2.19000    -22.736754
   2.19520    -22.736737
   2.20040    -22.736718
   2.20560    -22.736697
   2.21080    -22.736676
   2.21600    -22.736654
   2.22120    -22.736627
   2.22641    -22.736600
   2.23161    -22.736573
   2.23681    -22.736546
   2.24201    -22.736514
   2.24721    -22.736484
   2.25241    -22.736450
   2.25761    -22.736419
   2.26282    -22.736384
   2.26802    -22.736348
   2.27322    -22.736313
   2.27842    -22.736276
   2.28362    -22.736239
   2.28882    -22.736197
   2.29402    -22.736157
   2.29923    -22.736116
   2.30443    -22.736075
   2.30963    -22.736031
   2.31483    -22.735990
   2.32003    -22.735948
   2.32523    -22.735902
   2.33043    -22.735857
   2.33564    -22.735810
   2.34084    -22.735760
   2.34604    -22.735713
   2.35124    -22.735663
   2.35644    -22.735613
   2.36164    -22.735565
   2.36684    -22.735514
   2.37205    -22.735463
   2.37725    -22.735411
   2.38245    -22.735359
   2.38765    -22.735305
   2.39285    -22.735251
   2.39805    -22.735196
   2.40325    -22.735142
   2.40846    -22.735087
   2.41366    -22.735032
   2.41886    -22.734978
   2.42406    -22.734920
   2.42926    -22.734866
   2.43446    -22.734814
   2.43966    -22.734758
   2.44487    -22.734703
   2.45007    -22.734647
   2.45527    -22.734592
   2.46047    -22.734536
   2.46567    -22.734483
   2.47087    -22.734427
   2.47607    -22.734373
   2.48128    -22.734318
   2.48648    -22.734263
   2.49168    -22.734209
   2.49688    -22.734153
   2.50208    -22.734099
   2.50728    -22.734047
   2.51248    -22.733993
   2.51769    -22.733938
   2.52289    -22.733883
   2.52809    -22.733834
   2.53329    -22.733785
   2.53849    -22.733734
   2.54369    -22.733685
   2.54889    -22.733635
   2.55410    -22.733586
   2.55930    -22.733535
   2.56450    -22.733487
   2.56970    -22.733437
   2.57490    -22.733392
   2.58010    -22.733346
   2.58530    -22.733302
   2.59051    -22.733260
   2.59571    -22.733215
   2.60091    -22.733173
   2.60611    -22.733131
   2.61131    -22.733089
   2.61651    -22.733051
   2.62171    -22.733013
   2.62692    -22.732975
   2.63212    -22.732938
   2.63732    -22.732903
   2.64252    -22.732868
   2.64772    -22.732833
   2.65292    -22.732801
   2.65812    -22.732769
   2.66333    -22.732739
   2.66853    -22.732710
   2.67373    -22.732683
   2.67893    -22.732658
   2.68413    -22.732632
   2.68933    -22.732607
   2.69453    -22.732584
   2.69974    -22.732562
   2.70494    -22.732541
   2.71014    -22.732520
   2.71534    -22.732501
   2.72054    -22.732482
   2.72574    -22.732467
   2.73094    -22.732453
   2.73615    -22.732439
   2.74135    -22.732425
   2.74655    -22.732416
   2.75175    -22.732406
   2.75695    -22.732398
   2.76215    -22.732391
   2.76735    -22.732385
   2.77256    -22.732382
   2.77776    -22.732377
   2.78296    -22.732375
   2.78296    -22.732375
   2.78596    -22.732376
   2.78896    -22.732377
   2.79197    -22.732376
   2.79497    -22.732378
   2.79797    -22.732376
   2.80098    -22.732376
   2.80398    -22.732375
   2.80698    -22.732374
   2.80999    -22.732375
   2.81299    -22.732374
   2.81599    -22.732372
   2.81899    -22.732371
   2.82200    -22.732368
   2.82500    -22.732366
   2.82800    -22.732367
   2.83101    -22.732365
   2.83401    -22.732362
   2.83701    -22.732361
   2.84002    -22.732357
   2.84302    -22.732354
   2.84602    -22.732351
   2.84903    -22.732348
   2.85203    -22.732345
   2.85503    -22.732342
   2.85803    -22.732338
   2.86104    -22.732334
   2.86404    -22.732332
   2.86704    -22.732328
   2.87005    -22.732325
   2.87305    -22.732321
   2.87605    -22.732317
   2.87906    -22.732312
   2.88206    -22.732308
   2.88506    -22.732303
   2.88806    -22.732298
   2.89107    -22.732292
   2.89407    -22.732287
   2.89707    -22.732282
   2.90008    -22.732278
   2.90308    -22.732273
   2.90608    -22.732267
   2.90909    -22.732262
   2.91209    -22.732257
   2.91509    -22.732250
   2.91810    -22.732244
   2.92110    -22.732239
   2.92410    -22.732234
   2.92710    -22.732226
   2.93011    -22.732220
   2.93311    -22.732213
   2.93611    -22.732207
   2.93912    -22.732199
   2.94212    -22.732192
   2.94512    -22.732185
   2.94813    -22.732180
   2.95113    -22.732173
   2.95413    -22.732167
   2.95713    -22.732160
   2.96014    -22.732154
   2.96314    -22.732148
   2.96614    -22.732141
   2.96915    -22.732135
   2.97215    -22.732129
   2.97515    -22.732123
   2.97816    -22.732116
   2.98116    -22.732110
   2.98416    -22.732104
   2.98717    -22.732097
   2.99017    -22.732089
   2.99317    -22.732083
   2.99617    -22.732075
   2.99918    -22.732068
   3.00218    -22.732060
   3.00518    -22.732054
   3.00819    -22.732049
   3.01119    -22.732042
   3.01419    -22.732035
   3.01720    -22.732029
   3.02020    -22.732023
   3.02320    -22.732017
   3.02620    -22.732010
   3.02921    -22.732004
   3.03221    -22.731998
   3.03521    -22.731991
   3.03822    -22.731984
   3.04122    -22.731976
   3.04422    -22.731973
   3.04723    -22.731966
   3.05023    -22.731962
   3.05323    -22.731956
   3.05624    -22.731951
   3.05924    -22.731946
   3.06224    -22.731941
   3.06524    -22.731936
   3.06825    -22.731931
   3.07125    -22.731924
   3.07425    -22.731919
   3.07726    -22.731914
   3.08026    -22.731909
   3.08326    -22.731904
   3.08627    -22.731900
   3.08927    -22.731893
   3.09227    -22.731888
   3.09527    -22.731884
   3.09828    -22.731878
   3.10128    -22.731876
   3.10428    -22.731872
   3.10729    -22.731868
   3.11029    -22.731864
   3.11329    -22.731861
   3.11630    -22.731856
   3.11930    -22.731854
   3.12230    -22.731851
   3.12531    -22.731850
   3.12831    -22.731849
   3.13131    -22.731846
   3.13431    -22.731846
   3.13732    -22.731846
   3.14032    -22.731844
   3.14332    -22.731841
   3.14633    -22.731841
   3.14933    -22.731841
   3.15233    -22.731842
   3.15534    -22.731842
   3.15834    -22.731842
   3.16134    -22.731842
   3.16434    -22.731843
   3.16434    -22.731843
   3.17035    -22.731842
   3.17636    -22.731842
   3.18236    -22.731842
   3.18837    -22.731846
   3.19438    -22.731846
   3.20038    -22.731852
   3.20639    -22.731855
   3.21239    -22.731860
   3.21840    -22.731868
   3.22441    -22.731879
   3.23041    -22.731889
   3.23642    -22.731901
   3.24242    -22.731914
   3.24843    -22.731929
   3.25444    -22.731943
   3.26044    -22.731960
   3.26645    -22.731977
   3.27245    -22.731996
   3.27846    -22.732016
   3.28447    -22.732039
   3.29047    -22.732064
   3.29648    -22.732086
   3.30248    -22.732113
   3.30849    -22.732140
   3.31450    -22.732170
   3.32050    -22.732198
   3.32651    -22.732228
   3.33252    -22.732261
