#K-Path(1/A) Energy-Level(eV)
# NKPTS & NBANDS: 896  58
# Band-Index    1
   0.00000    -22.750699
   0.00521    -22.750702
   0.01041    -22.750697
   0.01562    -22.750694
   0.02082    -22.750689
   0.02603    -22.750683
   0.03123    -22.750676
   0.03644    -22.750669
   0.04164    -22.750657
   0.04685    -22.750645
   0.05206    -22.750633
   0.05726    -22.750618
   0.06247    -22.750605
   0.06767    -22.750589
   0.07288    -22.750569
   0.07808    -22.750552
   0.08329    -22.750531
   0.08849    -22.750510
   0.09370    -22.750486
   0.09891    -22.750464
   0.10411    -22.750438
   0.10932    -22.750414
   0.11452    -22.750387
   0.11973    -22.750357
   0.12493    -22.750328
   0.13014    -22.750298
   0.13534    -22.750265
   0.14055    -22.750231
   0.14576    -22.750195
   0.15096    -22.750157
   0.15617    -22.750121
   0.16137    -22.750082
   0.16658    -22.750043
   0.17178    -22.750004
   0.17699    -22.749964
   0.18220    -22.749925
   0.18740    -22.749882
   0.19261    -22.749837
   0.19781    -22.749795
   0.20302    -22.749749
   0.20822    -22.749703
   0.21343    -22.749654
   0.21863    -22.749609
   0.22384    -22.749560
   0.22905    -22.749511
   0.23425    -22.749461
   0.23946    -22.749411
   0.24466    -22.749359
   0.24987    -22.749308
   0.25507    -22.749257
   0.26028    -22.749201
   0.26548    -22.749148
   0.27069    -22.749095
   0.27590    -22.749040
   0.28110    -22.748984
   0.28631    -22.748929
   0.29151    -22.748875
   0.29672    -22.748821
   0.30192    -22.748767
   0.30713    -22.748711
   0.31233    -22.748656
   0.31754    -22.748600
   0.32275    -22.748544
   0.32795    -22.748488
   0.33316    -22.748431
   0.33836    -22.748373
   0.34357    -22.748317
   0.34877    -22.748263
   0.35398    -22.748207
   0.35918    -22.748149
   0.36439    -22.748095
   0.36960    -22.748040
   0.37480    -22.747985
   0.38001    -22.747930
   0.38521    -22.747877
   0.39042    -22.747824
   0.39562    -22.747769
   0.40083    -22.747717
   0.40603    -22.747665
   0.41124    -22.747610
   0.41645    -22.747559
   0.42165    -22.747505
   0.42686    -22.747453
   0.43206    -22.747404
   0.43727    -22.747355
   0.44247    -22.747306
   0.44768    -22.747261
   0.45288    -22.747214
   0.45809    -22.747167
   0.46330    -22.747123
   0.46850    -22.747078
   0.47371    -22.747033
   0.47891    -22.746992
   0.48412    -22.746949
   0.48932    -22.746907
   0.49453    -22.746869
   0.49974    -22.746829
   0.50494    -22.746791
   0.51015    -22.746755
   0.51535    -22.746720
   0.52056    -22.746685
   0.52576    -22.746651
   0.53097    -22.746618
   0.53617    -22.746585
   0.54138    -22.746554
   0.54659    -22.746522
   0.55179    -22.746493
   0.55700    -22.746466
   0.56220    -22.746439
   0.56741    -22.746413
   0.57261    -22.746390
   0.57782    -22.746367
   0.58302    -22.746345
   0.58823    -22.746325
   0.59344    -22.746307
   0.59864    -22.746290
   0.60385    -22.746274
   0.60905    -22.746261
   0.61426    -22.746248
   0.61946    -22.746236
   0.62467    -22.746224
   0.62987    -22.746213
   0.63508    -22.746206
   0.64029    -22.746200
   0.64549    -22.746197
   0.65070    -22.746193
   0.65590    -22.746193
   0.66111    -22.746191
   0.66111    -22.746191
   0.66411    -22.746193
   0.66712    -22.746192
   0.67012    -22.746190
   0.67313    -22.746189
   0.67613    -22.746189
   0.67914    -22.746188
   0.68215    -22.746187
   0.68515    -22.746185
   0.68816    -22.746182
   0.69116    -22.746181
   0.69417    -22.746180
   0.69717    -22.746179
   0.70018    -22.746178
   0.70318    -22.746176
   0.70619    -22.746174
   0.70919    -22.746171
   0.71220    -22.746169
   0.71521    -22.746166
   0.71821    -22.746163
   0.72122    -22.746162
   0.72422    -22.746159
   0.72723    -22.746156
   0.73023    -22.746153
   0.73324    -22.746150
   0.73624    -22.746146
   0.73925    -22.746144
   0.74225    -22.746140
   0.74526    -22.746137
   0.74827    -22.746133
   0.75127    -22.746129
   0.75428    -22.746123
   0.75728    -22.746119
   0.76029    -22.746115
   0.76329    -22.746109
   0.76630    -22.746106
   0.76930    -22.746100
   0.77231    -22.746095
   0.77531    -22.746090
   0.77832    -22.746084
   0.78133    -22.746080
   0.78433    -22.746075
   0.78734    -22.746069
   0.79034    -22.746062
   0.79335    -22.746057
   0.79635    -22.746051
   0.79936    -22.746044
   0.80236    -22.746038
   0.80537    -22.746032
   0.80837    -22.746026
   0.81138    -22.746021
   0.81439    -22.746015
   0.81739    -22.746010
   0.82040    -22.746002
   0.82340    -22.745995
   0.82641    -22.745991
   0.82941    -22.745985
   0.83242    -22.745974
   0.83542    -22.745969
   0.83843    -22.745962
   0.84143    -22.745956
   0.84444    -22.745950
   0.84745    -22.745945
   0.85045    -22.745938
   0.85346    -22.745932
   0.85646    -22.745925
   0.85947    -22.745918
   0.86247    -22.745910
   0.86548    -22.745903
   0.86848    -22.745894
   0.87149    -22.745887
   0.87449    -22.745882
   0.87750    -22.745874
   0.88050    -22.745867
   0.88351    -22.745859
   0.88652    -22.745853
   0.88952    -22.745846
   0.89253    -22.745839
   0.89553    -22.745831
   0.89854    -22.745824
   0.90154    -22.745819
   0.90455    -22.745812
   0.90755    -22.745806
   0.91056    -22.745799
   0.91356    -22.745791
   0.91657    -22.745785
   0.91958    -22.745779
   0.92258    -22.745773
   0.92559    -22.745767
   0.92859    -22.745759
   0.93160    -22.745753
   0.93460    -22.745747
   0.93761    -22.745741
   0.94061    -22.745736
   0.94362    -22.745730
   0.94662    -22.745726
   0.94963    -22.745720
   0.95264    -22.745716
   0.95564    -22.745711
   0.95865    -22.745706
   0.96165    -22.745702
   0.96466    -22.745697
   0.96766    -22.745692
   0.97067    -22.745688
   0.97367    -22.745684
   0.97668    -22.745680
   0.97968    -22.745676
   0.98269    -22.745673
   0.98570    -22.745670
   0.98870    -22.745666
   0.99171    -22.745662
   0.99471    -22.745658
   0.99772    -22.745654
   1.00072    -22.745649
   1.00373    -22.745646
   1.00673    -22.745644
   1.00974    -22.745641
   1.01274    -22.745639
   1.01575    -22.745636
   1.01876    -22.745633
   1.02176    -22.745631
   1.02477    -22.745630
   1.02777    -22.745626
   1.03078    -22.745625
   1.03378    -22.745625
   1.03679    -22.745625
   1.03979    -22.745625
   1.04280    -22.745625
   1.04280    -22.745625
   1.04881    -22.745625
   1.05482    -22.745626
   1.06083    -22.745627
   1.06684    -22.745633
   1.07285    -22.745638
   1.07886    -22.745644
   1.08487    -22.745649
   1.09089    -22.745659
   1.09690    -22.745670
   1.10291    -22.745680
   1.10892    -22.745689
   1.11493    -22.745701
   1.12094    -22.745717
   1.12695    -22.745734
   1.13296    -22.745750
   1.13897    -22.745767
   1.14498    -22.745786
   1.15099    -22.745807
   1.15701    -22.745827
   1.16302    -22.745850
   1.16903    -22.745873
   1.17504    -22.745896
   1.18105    -22.745924
   1.18706    -22.745952
   1.19307    -22.745977
   1.19908    -22.746007
   1.20509    -22.746037
   1.21110    -22.746067
   1.21711    -22.746101
   1.22312    -22.746136
   1.22914    -22.746168
   1.23515    -22.746205
   1.24116    -22.746245
   1.24717    -22.746284
   1.25318    -22.746324
   1.25919    -22.746366
   1.26520    -22.746409
   1.27121    -22.746453
   1.27722    -22.746499
   1.28323    -22.746545
   1.28924    -22.746595
   1.29526    -22.746643
   1.30127    -22.746694
   1.30728    -22.746745
   1.31329    -22.746799
   1.31930    -22.746851
   1.32531    -22.746903
   1.33132    -22.746958
   1.33733    -22.747014
   1.34334    -22.747069
   1.34935    -22.747126
   1.35536    -22.747184
   1.36138    -22.747243
   1.36739    -22.747300
   1.37340    -22.747361
   1.37941    -22.747423
   1.38542    -22.747484
   1.39143    -22.747548
   1.39744    -22.747613
   1.40345    -22.747676
   1.40946    -22.747739
   1.41547    -22.747801
   1.42148    -22.747865
   1.42749    -22.747932
   1.43351    -22.747996
   1.43952    -22.748060
   1.44553    -22.748128
   1.45154    -22.748190
   1.45755    -22.748256
   1.46356    -22.748320
   1.46957    -22.748387
   1.47558    -22.748453
   1.48159    -22.748520
   1.48760    -22.748584
   1.49361    -22.748650
   1.49963    -22.748715
   1.50564    -22.748779
   1.51165    -22.748844
   1.51766    -22.748908
   1.52367    -22.748973
   1.52968    -22.749034
   1.53569    -22.749096
   1.54170    -22.749157
   1.54771    -22.749219
   1.55372    -22.749280
   1.55973    -22.749343
   1.56574    -22.749402
   1.57176    -22.749460
   1.57777    -22.749518
   1.58378    -22.749572
   1.58979    -22.749628
   1.59580    -22.749682
   1.60181    -22.749736
   1.60782    -22.749789
   1.61383    -22.749842
   1.61984    -22.749893
   1.62585    -22.749942
   1.63186    -22.749990
   1.63788    -22.750037
   1.64389    -22.750083
   1.64990    -22.750125
   1.65591    -22.750167
   1.66192    -22.750206
   1.66793    -22.750245
   1.67394    -22.750281
   1.67995    -22.750315
   1.68596    -22.750351
   1.69197    -22.750383
   1.69798    -22.750417
   1.70400    -22.750447
   1.71001    -22.750477
   1.71602    -22.750505
   1.72203    -22.750528
   1.72804    -22.750551
   1.73405    -22.750573
   1.74006    -22.750595
   1.74607    -22.750612
   1.75208    -22.750627
   1.75809    -22.750642
   1.76410    -22.750656
   1.77011    -22.750668
   1.77613    -22.750679
   1.78214    -22.750686
   1.78815    -22.750691
   1.79416    -22.750695
   1.80017    -22.750700
   1.80618    -22.750699
   1.80618    -22.750699
   1.80868    -22.750703
   1.81117    -22.750703
   1.81367    -22.750703
   1.81617    -22.750699
   1.81866    -22.750699
   1.82116    -22.750699
   1.82366    -22.750697
   1.82615    -22.750695
   1.82865    -22.750695
   1.83115    -22.750695
   1.83364    -22.750695
   1.83614    -22.750695
   1.83864    -22.750695
   1.84113    -22.750697
   1.84363    -22.750699
   1.84613    -22.750699
   1.84862    -22.750700
   1.85112    -22.750700
   1.85362    -22.750700
   1.85611    -22.750700
   1.85861    -22.750704
   1.86111    -22.750704
   1.86360    -22.750704
   1.86610    -22.750704
   1.86860    -22.750704
   1.87110    -22.750704
   1.87359    -22.750704
   1.87609    -22.750704
   1.87859    -22.750704
   1.88108    -22.750704
   1.88358    -22.750704
   1.88608    -22.750704
   1.88857    -22.750704
   1.89107    -22.750703
   1.89357    -22.750707
   1.89606    -22.750711
   1.89856    -22.750711
   1.90106    -22.750711
   1.90355    -22.750713
   1.90605    -22.750713
   1.90855    -22.750717
   1.91104    -22.750717
   1.91354    -22.750717
   1.91604    -22.750717
   1.91853    -22.750717
   1.92103    -22.750720
   1.92353    -22.750720
   1.92602    -22.750720
   1.92852    -22.750720
   1.93102    -22.750724
   1.93351    -22.750724
   1.93601    -22.750721
   1.93851    -22.750721
   1.94100    -22.750721
   1.94350    -22.750721
   1.94600    -22.750721
   1.94849    -22.750721
   1.95099    -22.750721
   1.95349    -22.750721
   1.95598    -22.750721
   1.95848    -22.750721
   1.96098    -22.750717
   1.96347    -22.750719
   1.96597    -22.750719
   1.96847    -22.750719
   1.97096    -22.750719
   1.97346    -22.750719
   1.97596    -22.750719
   1.97845    -22.750719
   1.98095    -22.750719
   1.98345    -22.750719
   1.98594    -22.750719
   1.98844    -22.750719
   1.99094    -22.750719
   1.99343    -22.750719
   1.99593    -22.750719
   1.99843    -22.750720
   2.00093    -22.750716
   2.00342    -22.750716
   2.00592    -22.750716
   2.00842    -22.750716
   2.01091    -22.750716
   2.01341    -22.750716
   2.01591    -22.750713
   2.01840    -22.750713
   2.02090    -22.750713
   2.02340    -22.750713
   2.02589    -22.750713
   2.02839    -22.750713
   2.03089    -22.750713
   2.03338    -22.750718
   2.03588    -22.750718
   2.03838    -22.750718
   2.04087    -22.750718
   2.04337    -22.750718
   2.04587    -22.750718
   2.04836    -22.750718
   2.05086    -22.750718
   2.05336    -22.750722
   2.05585    -22.750722
   2.05835    -22.750722
   2.06085    -22.750722
   2.06334    -22.750722
   2.06584    -22.750722
   2.06834    -22.750722
   2.07083    -22.750722
   2.07333    -22.750722
   2.07583    -22.750723
   2.07832    -22.750720
   2.08082    -22.750720
   2.08332    -22.750720
   2.08581    -22.750720
   2.08831    -22.750722
   2.09081    -22.750722
   2.09330    -22.750722
   2.09580    -22.750720
   2.09830    -22.750720
   2.10079    -22.750720
   2.10329    -22.750721
   2.10579    -22.750721
   2.10828    -22.750721
   2.11078    -22.750725
   2.11328    -22.750725
   2.11577    -22.750725
   2.11827    -22.750725
   2.12077    -22.750725
   2.12327    -22.750725
   2.12327    -22.750725
   2.12847    -22.750724
   2.13368    -22.750722
   2.13888    -22.750717
   2.14409    -22.750711
   2.14929    -22.750704
   2.15450    -22.750697
   2.15970    -22.750688
   2.16491    -22.750679
   2.17012    -22.750668
   2.17532    -22.750654
   2.18053    -22.750639
   2.18573    -22.750624
   2.19094    -22.750606
   2.19614    -22.750587
   2.20135    -22.750568
   2.20655    -22.750547
   2.21176    -22.750524
   2.21697    -22.750499
   2.22217    -22.750476
   2.22738    -22.750451
   2.23258    -22.750424
   2.23779    -22.750394
   2.24299    -22.750361
   2.24820    -22.750332
   2.25340    -22.750299
   2.25861    -22.750262
   2.26382    -22.750231
   2.26902    -22.750197
   2.27423    -22.750159
   2.27943    -22.750122
   2.28464    -22.750084
   2.28984    -22.750043
   2.29505    -22.750003
   2.30025    -22.749963
   2.30546    -22.749922
   2.31067    -22.749878
   2.31587    -22.749834
   2.32108    -22.749789
   2.32628    -22.749744
   2.33149    -22.749698
   2.33669    -22.749650
   2.34190    -22.749599
   2.34710    -22.749553
   2.35231    -22.749504
   2.35752    -22.749455
   2.36272    -22.749404
   2.36793    -22.749355
   2.37313    -22.749305
   2.37834    -22.749249
   2.38354    -22.749196
   2.38875    -22.749142
   2.39395    -22.749088
   2.39916    -22.749034
   2.40437    -22.748977
   2.40957    -22.748922
   2.41478    -22.748867
   2.41998    -22.748811
   2.42519    -22.748755
   2.43039    -22.748698
   2.43560    -22.748643
   2.44081    -22.748590
   2.44601    -22.748536
   2.45122    -22.748480
   2.45642    -22.748424
   2.46163    -22.748367
   2.46683    -22.748311
   2.47204    -22.748255
   2.47724    -22.748202
   2.48245    -22.748145
   2.48766    -22.748091
   2.49286    -22.748034
   2.49807    -22.747979
   2.50327    -22.747926
   2.50848    -22.747872
   2.51368    -22.747818
   2.51889    -22.747764
   2.52409    -22.747710
   2.52930    -22.747656
   2.53451    -22.747606
   2.53971    -22.747557
   2.54492    -22.747506
   2.55012    -22.747454
   2.55533    -22.747403
   2.56053    -22.747355
   2.56574    -22.747304
   2.57094    -22.747256
   2.57615    -22.747210
   2.58136    -22.747165
   2.58656    -22.747119
   2.59177    -22.747076
   2.59697    -22.747035
   2.60218    -22.746992
   2.60738    -22.746951
   2.61259    -22.746909
   2.61779    -22.746869
   2.62300    -22.746830
   2.62821    -22.746791
   2.63341    -22.746754
   2.63862    -22.746718
   2.64382    -22.746684
   2.64903    -22.746649
   2.65423    -22.746616
   2.65944    -22.746584
   2.66464    -22.746556
   2.66985    -22.746528
   2.67506    -22.746499
   2.68026    -22.746473
   2.68547    -22.746447
   2.69067    -22.746423
   2.69588    -22.746400
   2.70108    -22.746377
   2.70629    -22.746356
   2.71149    -22.746337
   2.71670    -22.746317
   2.72191    -22.746299
   2.72711    -22.746282
   2.73232    -22.746265
   2.73752    -22.746254
   2.74273    -22.746241
   2.74793    -22.746230
   2.75314    -22.746223
   2.75834    -22.746214
   2.76355    -22.746206
   2.76876    -22.746199
   2.77396    -22.746195
   2.77917    -22.746194
   2.78437    -22.746191
   2.78437    -22.746191
   2.78738    -22.746191
   2.79038    -22.746190
   2.79339    -22.746188
   2.79639    -22.746186
   2.79940    -22.746188
   2.80241    -22.746189
   2.80541    -22.746189
   2.80842    -22.746188
   2.81142    -22.746187
   2.81443    -22.746186
   2.81743    -22.746184
   2.82044    -22.746181
   2.82344    -22.746180
   2.82645    -22.746177
   2.82945    -22.746176
   2.83246    -22.746174
   2.83547    -22.746170
   2.83847    -22.746170
   2.84148    -22.746166
   2.84448    -22.746163
   2.84749    -22.746160
   2.85049    -22.746157
   2.85350    -22.746155
   2.85650    -22.746153
   2.85951    -22.746149
   2.86251    -22.746146
   2.86552    -22.746142
   2.86853    -22.746138
   2.87153    -22.746134
   2.87454    -22.746131
   2.87754    -22.746126
   2.88055    -22.746122
   2.88355    -22.746117
   2.88656    -22.746112
   2.88956    -22.746108
   2.89257    -22.746103
   2.89557    -22.746099
   2.89858    -22.746094
   2.90158    -22.746088
   2.90459    -22.746082
   2.90760    -22.746078
   2.91060    -22.746074
   2.91361    -22.746068
   2.91661    -22.746062
   2.91962    -22.746055
   2.92262    -22.746048
   2.92563    -22.746043
   2.92863    -22.746037
   2.93164    -22.746031
   2.93464    -22.746025
   2.93765    -22.746017
   2.94066    -22.746011
   2.94366    -22.746004
   2.94667    -22.745997
   2.94967    -22.745992
   2.95268    -22.745983
   2.95568    -22.745976
   2.95869    -22.745972
   2.96169    -22.745964
   2.96470    -22.745959
   2.96770    -22.745952
   2.97071    -22.745945
   2.97372    -22.745940
   2.97672    -22.745933
   2.97973    -22.745925
   2.98273    -22.745919
   2.98574    -22.745912
   2.98874    -22.745904
   2.99175    -22.745897
   2.99475    -22.745890
   2.99776    -22.745883
   3.00076    -22.745876
   3.00377    -22.745869
   3.00678    -22.745863
   3.00978    -22.745857
   3.01279    -22.745850
   3.01579    -22.745844
   3.01880    -22.745838
   3.02180    -22.745831
   3.02481    -22.745825
   3.02781    -22.745817
   3.03082    -22.745812
   3.03382    -22.745805
   3.03683    -22.745800
   3.03984    -22.745793
   3.04284    -22.745788
   3.04585    -22.745783
   3.04885    -22.745776
   3.05186    -22.745770
   3.05486    -22.745765
   3.05787    -22.745759
   3.06087    -22.745754
   3.06388    -22.745748
   3.06688    -22.745743
   3.06989    -22.745739
   3.07290    -22.745734
   3.07590    -22.745728
   3.07891    -22.745723
   3.08191    -22.745718
   3.08492    -22.745713
   3.08792    -22.745707
   3.09093    -22.745701
   3.09393    -22.745696
   3.09694    -22.745692
   3.09994    -22.745689
   3.10295    -22.745685
   3.10595    -22.745681
   3.10896    -22.745676
   3.11197    -22.745672
   3.11497    -22.745668
   3.11798    -22.745668
   3.12098    -22.745664
   3.12399    -22.745662
   3.12699    -22.745660
   3.13000    -22.745657
   3.13300    -22.745655
   3.13601    -22.745654
   3.13901    -22.745652
   3.14202    -22.745650
   3.14503    -22.745651
   3.14803    -22.745648
   3.15104    -22.745647
   3.15404    -22.745647
   3.15705    -22.745645
   3.16005    -22.745644
   3.16306    -22.745644
   3.16606    -22.745646
   3.16606    -22.745646
   3.17207    -22.745645
   3.17809    -22.745647
   3.18410    -22.745647
   3.19011    -22.745650
   3.19612    -22.745654
   3.20213    -22.745658
   3.20814    -22.745664
   3.21415    -22.745671
   3.22016    -22.745679
   3.22617    -22.745687
   3.23218    -22.745698
   3.23819    -22.745710
   3.24421    -22.745724
   3.25022    -22.745738
   3.25623    -22.745754
   3.26224    -22.745769
   3.26825    -22.745785
   3.27426    -22.745806
   3.28027    -22.745827
   3.28628    -22.745848
   3.29229    -22.745871
   3.29830    -22.745895
   3.30431    -22.745923
   3.31032    -22.745951
   3.31634    -22.745980
   3.32235    -22.746009
   3.32836    -22.746039
   3.33437    -22.746072
