#K-Path(1/A) Energy-Level(eV)
# NKPTS & NBANDS: 896  58
# Band-Index    1
   0.00000    -22.758127
   0.00521    -22.758125
   0.01043    -22.758121
   0.01564    -22.758120
   0.02085    -22.758114
   0.02606    -22.758111
   0.03128    -22.758105
   0.03649    -22.758097
   0.04170    -22.758087
   0.04691    -22.758076
   0.05213    -22.758064
   0.05734    -22.758052
   0.06255    -22.758035
   0.06776    -22.758018
   0.07298    -22.757999
   0.07819    -22.757977
   0.08340    -22.757959
   0.08861    -22.757936
   0.09383    -22.757917
   0.09904    -22.757893
   0.10425    -22.757869
   0.10946    -22.757842
   0.11468    -22.757814
   0.11989    -22.757784
   0.12510    -22.757752
   0.13031    -22.757720
   0.13553    -22.757686
   0.14074    -22.757654
   0.14595    -22.757618
   0.15116    -22.757581
   0.15638    -22.757542
   0.16159    -22.757503
   0.16680    -22.757466
   0.17201    -22.757427
   0.17723    -22.757384
   0.18244    -22.757341
   0.18765    -22.757297
   0.19286    -22.757253
   0.19808    -22.757210
   0.20329    -22.757164
   0.20850    -22.757117
   0.21371    -22.757069
   0.21893    -22.757020
   0.22414    -22.756970
   0.22935    -22.756920
   0.23456    -22.756870
   0.23978    -22.756818
   0.24499    -22.756768
   0.25020    -22.756716
   0.25541    -22.756661
   0.26063    -22.756607
   0.26584    -22.756552
   0.27105    -22.756499
   0.27626    -22.756444
   0.28148    -22.756389
   0.28669    -22.756331
   0.29190    -22.756275
   0.29711    -22.756220
   0.30233    -22.756164
   0.30754    -22.756110
   0.31275    -22.756053
   0.31796    -22.755996
   0.32318    -22.755939
   0.32839    -22.755881
   0.33360    -22.755824
   0.33881    -22.755768
   0.34403    -22.755712
   0.34924    -22.755655
   0.35445    -22.755599
   0.35966    -22.755542
   0.36488    -22.755484
   0.37009    -22.755428
   0.37530    -22.755372
   0.38051    -22.755317
   0.38573    -22.755262
   0.39094    -22.755207
   0.39615    -22.755151
   0.40136    -22.755098
   0.40658    -22.755045
   0.41179    -22.754995
   0.41700    -22.754943
   0.42221    -22.754890
   0.42743    -22.754836
   0.43264    -22.754785
   0.43785    -22.754735
   0.44306    -22.754685
   0.44828    -22.754638
   0.45349    -22.754590
   0.45870    -22.754544
   0.46391    -22.754498
   0.46913    -22.754454
   0.47434    -22.754408
   0.47955    -22.754364
   0.48476    -22.754322
   0.48998    -22.754280
   0.49519    -22.754239
   0.50040    -22.754199
   0.50561    -22.754161
   0.51083    -22.754124
   0.51604    -22.754087
   0.52125    -22.754050
   0.52646    -22.754014
   0.53168    -22.753982
   0.53689    -22.753951
   0.54210    -22.753920
   0.54731    -22.753889
   0.55253    -22.753860
   0.55774    -22.753830
   0.56295    -22.753802
   0.56816    -22.753777
   0.57338    -22.753754
   0.57859    -22.753730
   0.58380    -22.753707
   0.58901    -22.753687
   0.59423    -22.753668
   0.59944    -22.753651
   0.60465    -22.753636
   0.60986    -22.753622
   0.61508    -22.753606
   0.62029    -22.753595
   0.62550    -22.753585
   0.63071    -22.753576
   0.63593    -22.753567
   0.64114    -22.753560
   0.64635    -22.753555
   0.65156    -22.753551
   0.65678    -22.753549
   0.66199    -22.753551
   0.66199    -22.753551
   0.66500    -22.753548
   0.66801    -22.753548
   0.67102    -22.753546
   0.67403    -22.753547
   0.67704    -22.753546
   0.68004    -22.753546
   0.68305    -22.753544
   0.68606    -22.753543
   0.68907    -22.753542
   0.69208    -22.753541
   0.69509    -22.753539
   0.69810    -22.753538
   0.70111    -22.753536
   0.70412    -22.753534
   0.70713    -22.753533
   0.71014    -22.753532
   0.71315    -22.753531
   0.71616    -22.753528
   0.71917    -22.753525
   0.72218    -22.753522
   0.72519    -22.753519
   0.72820    -22.753516
   0.73121    -22.753513
   0.73421    -22.753509
   0.73722    -22.753505
   0.74023    -22.753503
   0.74324    -22.753499
   0.74625    -22.753495
   0.74926    -22.753489
   0.75227    -22.753485
   0.75528    -22.753482
   0.75829    -22.753479
   0.76130    -22.753474
   0.76431    -22.753470
   0.76732    -22.753466
   0.77033    -22.753461
   0.77334    -22.753455
   0.77635    -22.753450
   0.77936    -22.753442
   0.78237    -22.753436
   0.78538    -22.753431
   0.78838    -22.753425
   0.79139    -22.753420
   0.79440    -22.753413
   0.79741    -22.753407
   0.80042    -22.753401
   0.80343    -22.753395
   0.80644    -22.753389
   0.80945    -22.753383
   0.81246    -22.753376
   0.81547    -22.753370
   0.81848    -22.753365
   0.82149    -22.753359
   0.82450    -22.753351
   0.82751    -22.753344
   0.83052    -22.753337
   0.83353    -22.753330
   0.83654    -22.753324
   0.83955    -22.753317
   0.84255    -22.753309
   0.84556    -22.753303
   0.84857    -22.753297
   0.85158    -22.753291
   0.85459    -22.753285
   0.85760    -22.753279
   0.86061    -22.753270
   0.86362    -22.753265
   0.86663    -22.753255
   0.86964    -22.753248
   0.87265    -22.753240
   0.87566    -22.753233
   0.87867    -22.753226
   0.88168    -22.753219
   0.88469    -22.753212
   0.88770    -22.753205
   0.89071    -22.753198
   0.89372    -22.753191
   0.89672    -22.753183
   0.89973    -22.753176
   0.90274    -22.753172
   0.90575    -22.753165
   0.90876    -22.753155
   0.91177    -22.753150
   0.91478    -22.753143
   0.91779    -22.753138
   0.92080    -22.753130
   0.92381    -22.753124
   0.92682    -22.753118
   0.92983    -22.753113
   0.93284    -22.753107
   0.93585    -22.753102
   0.93886    -22.753096
   0.94187    -22.753089
   0.94488    -22.753083
   0.94789    -22.753078
   0.95089    -22.753072
   0.95390    -22.753067
   0.95691    -22.753061
   0.95992    -22.753056
   0.96293    -22.753051
   0.96594    -22.753046
   0.96895    -22.753041
   0.97196    -22.753037
   0.97497    -22.753033
   0.97798    -22.753030
   0.98099    -22.753026
   0.98400    -22.753022
   0.98701    -22.753017
   0.99002    -22.753013
   0.99303    -22.753010
   0.99604    -22.753007
   0.99905    -22.753003
   1.00206    -22.753003
   1.00506    -22.753000
   1.00807    -22.752997
   1.01108    -22.752994
   1.01409    -22.752992
   1.01710    -22.752991
   1.02011    -22.752987
   1.02312    -22.752983
   1.02613    -22.752981
   1.02914    -22.752980
   1.03215    -22.752978
   1.03516    -22.752977
   1.03817    -22.752975
   1.04118    -22.752977
   1.04419    -22.752975
   1.04419    -22.752975
   1.05021    -22.752977
   1.05623    -22.752977
   1.06224    -22.752980
   1.06826    -22.752987
   1.07428    -22.752988
   1.08030    -22.752994
   1.08632    -22.753004
   1.09234    -22.753010
   1.09836    -22.753022
   1.10438    -22.753032
   1.11040    -22.753044
   1.11641    -22.753055
   1.12243    -22.753069
   1.12845    -22.753085
   1.13447    -22.753102
   1.14049    -22.753121
   1.14651    -22.753140
   1.15253    -22.753160
   1.15855    -22.753180
   1.16456    -22.753204
   1.17058    -22.753227
   1.17660    -22.753250
   1.18262    -22.753276
   1.18864    -22.753304
   1.19466    -22.753333
   1.20068    -22.753362
   1.20670    -22.753393
   1.21272    -22.753426
   1.21873    -22.753458
   1.22475    -22.753492
   1.23077    -22.753529
   1.23679    -22.753567
   1.24281    -22.753605
   1.24883    -22.753645
   1.25485    -22.753683
   1.26087    -22.753725
   1.26689    -22.753769
   1.27290    -22.753815
   1.27892    -22.753861
   1.28494    -22.753908
   1.29096    -22.753958
   1.29698    -22.754007
   1.30300    -22.754059
   1.30902    -22.754111
   1.31504    -22.754163
   1.32106    -22.754217
   1.32707    -22.754270
   1.33309    -22.754327
   1.33911    -22.754383
   1.34513    -22.754440
   1.35115    -22.754499
   1.35717    -22.754558
   1.36319    -22.754621
   1.36921    -22.754683
   1.37523    -22.754744
   1.38124    -22.754806
   1.38726    -22.754867
   1.39328    -22.754929
   1.39930    -22.754993
   1.40532    -22.755057
   1.41134    -22.755119
   1.41736    -22.755186
   1.42338    -22.755252
   1.42940    -22.755318
   1.43541    -22.755384
   1.44143    -22.755448
   1.44745    -22.755513
   1.45347    -22.755578
   1.45949    -22.755648
   1.46551    -22.755713
   1.47153    -22.755779
   1.47755    -22.755844
   1.48357    -22.755912
   1.48958    -22.755980
   1.49560    -22.756046
   1.50162    -22.756113
   1.50764    -22.756180
   1.51366    -22.756245
   1.51968    -22.756309
   1.52570    -22.756374
   1.53172    -22.756438
   1.53774    -22.756501
   1.54375    -22.756563
   1.54977    -22.756625
   1.55579    -22.756687
   1.56181    -22.756750
   1.56783    -22.756809
   1.57385    -22.756867
   1.57987    -22.756927
   1.58589    -22.756985
   1.59191    -22.757041
   1.59792    -22.757097
   1.60394    -22.757152
   1.60996    -22.757205
   1.61598    -22.757258
   1.62200    -22.757308
   1.62802    -22.757359
   1.63404    -22.757406
   1.64006    -22.757454
   1.64608    -22.757499
   1.65209    -22.757542
   1.65811    -22.757584
   1.66413    -22.757626
   1.67015    -22.757664
   1.67617    -22.757702
   1.68219    -22.757739
   1.68821    -22.757774
   1.69423    -22.757809
   1.70025    -22.757841
   1.70626    -22.757868
   1.71228    -22.757898
   1.71830    -22.757927
   1.72432    -22.757956
   1.73034    -22.757981
   1.73636    -22.758002
   1.74238    -22.758022
   1.74840    -22.758040
   1.75442    -22.758056
   1.76043    -22.758072
   1.76645    -22.758086
   1.77247    -22.758098
   1.77849    -22.758107
   1.78451    -22.758112
   1.79053    -22.758120
   1.79655    -22.758121
   1.80257    -22.758125
   1.80859    -22.758127
   1.80859    -22.758127
   1.81108    -22.758127
   1.81356    -22.758130
   1.81605    -22.758130
   1.81854    -22.758126
   1.82103    -22.758126
   1.82352    -22.758127
   1.82601    -22.758127
   1.82850    -22.758127
   1.83099    -22.758127
   1.83348    -22.758127
   1.83597    -22.758127
   1.83846    -22.758127
   1.84095    -22.758127
   1.84344    -22.758125
   1.84593    -22.758125
   1.84842    -22.758125
   1.85091    -22.758123
   1.85340    -22.758123
   1.85589    -22.758123
   1.85838    -22.758123
   1.86087    -22.758123
   1.86335    -22.758123
   1.86584    -22.758123
   1.86833    -22.758123
   1.87082    -22.758125
   1.87331    -22.758125
   1.87580    -22.758125
   1.87829    -22.758125
   1.88078    -22.758125
   1.88327    -22.758128
   1.88576    -22.758128
   1.88825    -22.758128
   1.89074    -22.758132
   1.89323    -22.758135
   1.89572    -22.758135
   1.89821    -22.758139
   1.90070    -22.758139
   1.90319    -22.758141
   1.90568    -22.758144
   1.90817    -22.758144
   1.91066    -22.758144
   1.91314    -22.758144
   1.91563    -22.758144
   1.91812    -22.758144
   1.92061    -22.758144
   1.92310    -22.758149
   1.92559    -22.758149
   1.92808    -22.758148
   1.93057    -22.758148
   1.93306    -22.758148
   1.93555    -22.758148
   1.93804    -22.758152
   1.94053    -22.758152
   1.94302    -22.758148
   1.94551    -22.758150
   1.94800    -22.758150
   1.95049    -22.758150
   1.95298    -22.758150
   1.95547    -22.758150
   1.95796    -22.758150
   1.96045    -22.758150
   1.96294    -22.758150
   1.96542    -22.758150
   1.96791    -22.758148
   1.97040    -22.758148
   1.97289    -22.758148
   1.97538    -22.758148
   1.97787    -22.758148
   1.98036    -22.758148
   1.98285    -22.758148
   1.98534    -22.758148
   1.98783    -22.758148
   1.99032    -22.758148
   1.99281    -22.758148
   1.99530    -22.758148
   1.99779    -22.758148
   2.00028    -22.758148
   2.00277    -22.758148
   2.00526    -22.758148
   2.00775    -22.758148
   2.01024    -22.758148
   2.01273    -22.758148
   2.01521    -22.758148
   2.01770    -22.758148
   2.02019    -22.758144
   2.02268    -22.758144
   2.02517    -22.758144
   2.02766    -22.758144
   2.03015    -22.758148
   2.03264    -22.758153
   2.03513    -22.758153
   2.03762    -22.758153
   2.04011    -22.758153
   2.04260    -22.758150
   2.04509    -22.758150
   2.04758    -22.758151
   2.05007    -22.758151
   2.05256    -22.758151
   2.05505    -22.758151
   2.05754    -22.758151
   2.06003    -22.758151
   2.06252    -22.758153
   2.06501    -22.758153
   2.06749    -22.758153
   2.06998    -22.758153
   2.07247    -22.758153
   2.07496    -22.758153
   2.07745    -22.758153
   2.07994    -22.758153
   2.08243    -22.758153
   2.08492    -22.758153
   2.08741    -22.758153
   2.08990    -22.758153
   2.09239    -22.758153
   2.09488    -22.758153
   2.09737    -22.758153
   2.09986    -22.758153
   2.10235    -22.758157
   2.10484    -22.758157
   2.10733    -22.758153
   2.10982    -22.758153
   2.11231    -22.758153
   2.11480    -22.758153
   2.11728    -22.758151
   2.11977    -22.758151
   2.12226    -22.758151
   2.12475    -22.758151
   2.12475    -22.758151
   2.12997    -22.758151
   2.13518    -22.758149
   2.14039    -22.758146
   2.14560    -22.758143
   2.15082    -22.758135
   2.15603    -22.758127
   2.16124    -22.758116
   2.16645    -22.758105
   2.17167    -22.758095
   2.17688    -22.758082
   2.18209    -22.758068
   2.18730    -22.758051
   2.19252    -22.758034
   2.19773    -22.758015
   2.20294    -22.757996
   2.20815    -22.757972
   2.21337    -22.757949
   2.21858    -22.757926
   2.22379    -22.757898
   2.22900    -22.757872
   2.23422    -22.757843
   2.23943    -22.757816
   2.24464    -22.757785
   2.24985    -22.757753
   2.25507    -22.757721
   2.26028    -22.757686
   2.26549    -22.757654
   2.27070    -22.757618
   2.27592    -22.757584
   2.28113    -22.757546
   2.28634    -22.757508
   2.29155    -22.757469
   2.29677    -22.757426
   2.30198    -22.757382
   2.30719    -22.757341
   2.31240    -22.757297
   2.31762    -22.757252
   2.32283    -22.757204
   2.32804    -22.757156
   2.33325    -22.757109
   2.33847    -22.757061
   2.34368    -22.757017
   2.34889    -22.756967
   2.35410    -22.756917
   2.35932    -22.756867
   2.36453    -22.756814
   2.36974    -22.756762
   2.37495    -22.756708
   2.38017    -22.756656
   2.38538    -22.756603
   2.39059    -22.756547
   2.39580    -22.756493
   2.40102    -22.756437
   2.40623    -22.756382
   2.41144    -22.756326
   2.41665    -22.756269
   2.42187    -22.756210
   2.42708    -22.756154
   2.43229    -22.756098
   2.43750    -22.756043
   2.44272    -22.755986
   2.44793    -22.755929
   2.45314    -22.755871
   2.45835    -22.755816
   2.46357    -22.755760
   2.46878    -22.755703
   2.47399    -22.755646
   2.47920    -22.755589
   2.48442    -22.755533
   2.48963    -22.755477
   2.49484    -22.755422
   2.50005    -22.755368
   2.50527    -22.755314
   2.51048    -22.755258
   2.51569    -22.755203
   2.52090    -22.755149
   2.52612    -22.755096
   2.53133    -22.755042
   2.53654    -22.754987
   2.54175    -22.754936
   2.54697    -22.754884
   2.55218    -22.754831
   2.55739    -22.754780
   2.56260    -22.754729
   2.56782    -22.754682
   2.57303    -22.754633
   2.57824    -22.754587
   2.58345    -22.754539
   2.58867    -22.754494
   2.59388    -22.754451
   2.59909    -22.754405
   2.60430    -22.754361
   2.60952    -22.754318
   2.61473    -22.754279
   2.61994    -22.754238
   2.62515    -22.754199
   2.63037    -22.754160
   2.63558    -22.754125
   2.64079    -22.754088
   2.64600    -22.754052
   2.65122    -22.754016
   2.65643    -22.753982
   2.66164    -22.753950
   2.66685    -22.753920
   2.67207    -22.753890
   2.67728    -22.753860
   2.68249    -22.753835
   2.68770    -22.753809
   2.69292    -22.753785
   2.69813    -22.753762
   2.70334    -22.753740
   2.70855    -22.753719
   2.71377    -22.753698
   2.71898    -22.753678
   2.72419    -22.753660
   2.72940    -22.753644
   2.73462    -22.753627
   2.73983    -22.753614
   2.74504    -22.753600
   2.75025    -22.753591
   2.75547    -22.753581
   2.76068    -22.753573
   2.76589    -22.753565
   2.77110    -22.753562
   2.77632    -22.753559
   2.78153    -22.753559
   2.78674    -22.753557
   2.78674    -22.753557
   2.78975    -22.753556
   2.79276    -22.753554
   2.79577    -22.753554
   2.79878    -22.753553
   2.80179    -22.753553
   2.80480    -22.753551
   2.80781    -22.753550
   2.81082    -22.753548
   2.81383    -22.753547
   2.81684    -22.753547
   2.81985    -22.753543
   2.82285    -22.753542
   2.82586    -22.753540
   2.82887    -22.753536
   2.83188    -22.753535
   2.83489    -22.753532
   2.83790    -22.753530
   2.84091    -22.753528
   2.84392    -22.753526
   2.84693    -22.753523
   2.84994    -22.753520
   2.85295    -22.753517
   2.85596    -22.753515
   2.85897    -22.753511
   2.86198    -22.753509
   2.86499    -22.753505
   2.86800    -22.753501
   2.87101    -22.753497
   2.87402    -22.753493
   2.87702    -22.753489
   2.88003    -22.753484
   2.88304    -22.753481
   2.88605    -22.753475
   2.88906    -22.753470
   2.89207    -22.753466
   2.89508    -22.753461
   2.89809    -22.753455
   2.90110    -22.753450
   2.90411    -22.753445
   2.90712    -22.753440
   2.91013    -22.753434
   2.91314    -22.753428
   2.91615    -22.753422
   2.91916    -22.753418
   2.92217    -22.753412
   2.92518    -22.753406
   2.92819    -22.753400
   2.93119    -22.753392
   2.93420    -22.753385
   2.93721    -22.753379
   2.94022    -22.753374
   2.94323    -22.753367
   2.94624    -22.753359
   2.94925    -22.753353
   2.95226    -22.753345
   2.95527    -22.753342
   2.95828    -22.753334
   2.96129    -22.753326
   2.96430    -22.753320
   2.96731    -22.753315
   2.97032    -22.753307
   2.97333    -22.753300
   2.97634    -22.753293
   2.97935    -22.753286
   2.98236    -22.753277
   2.98536    -22.753269
   2.98837    -22.753262
   2.99138    -22.753256
   2.99439    -22.753250
   2.99740    -22.753243
   3.00041    -22.753236
   3.00342    -22.753229
   3.00643    -22.753222
   3.00944    -22.753216
   3.01245    -22.753210
   3.01546    -22.753204
   3.01847    -22.753197
   3.02148    -22.753192
   3.02449    -22.753185
   3.02750    -22.753178
   3.03051    -22.753172
   3.03352    -22.753166
   3.03653    -22.753160
   3.03953    -22.753153
   3.04254    -22.753146
   3.04555    -22.753140
   3.04856    -22.753134
   3.05157    -22.753127
   3.05458    -22.753121
   3.05759    -22.753113
   3.06060    -22.753107
   3.06361    -22.753101
   3.06662    -22.753097
   3.06963    -22.753091
   3.07264    -22.753086
   3.07565    -22.753081
   3.07866    -22.753075
   3.08167    -22.753072
   3.08468    -22.753068
   3.08769    -22.753063
   3.09070    -22.753058
   3.09370    -22.753055
   3.09671    -22.753048
   3.09972    -22.753043
   3.10273    -22.753039
   3.10574    -22.753035
   3.10875    -22.753028
   3.11176    -22.753024
   3.11477    -22.753021
   3.11778    -22.753017
   3.12079    -22.753015
   3.12380    -22.753012
   3.12681    -22.753010
   3.12982    -22.753007
   3.13283    -22.753006
   3.13584    -22.753003
   3.13885    -22.753000
   3.14186    -22.752998
   3.14487    -22.752996
   3.14787    -22.752995
   3.15088    -22.752993
   3.15389    -22.752991
   3.15690    -22.752988
   3.15991    -22.752985
   3.16292    -22.752985
   3.16593    -22.752985
   3.16894    -22.752986
   3.16894    -22.752986
   3.17496    -22.752985
   3.18098    -22.752990
   3.18700    -22.752995
   3.19302    -22.753000
   3.19904    -22.753005
   3.20505    -22.753010
   3.21107    -22.753013
   3.21709    -22.753022
   3.22311    -22.753031
   3.22913    -22.753041
   3.23515    -22.753052
   3.24117    -22.753064
   3.24719    -22.753077
   3.25321    -22.753089
   3.25922    -22.753106
   3.26524    -22.753124
   3.27126    -22.753139
   3.27728    -22.753159
   3.28330    -22.753180
   3.28932    -22.753202
   3.29534    -22.753227
   3.30136    -22.753250
   3.30738    -22.753275
   3.31339    -22.753303
   3.31941    -22.753330
   3.32543    -22.753361
   3.33145    -22.753395
   3.33747    -22.753430
