#K-Path(1/A) Energy-Level(eV)
# NKPTS & NBANDS: 896  58
# Band-Index    1
   0.00000    -22.746878
   0.00520    -22.746880
   0.01040    -22.746874
   0.01560    -22.746871
   0.02081    -22.746866
   0.02601    -22.746858
   0.03121    -22.746851
   0.03641    -22.746842
   0.04161    -22.746833
   0.04681    -22.746821
   0.05201    -22.746809
   0.05722    -22.746795
   0.06242    -22.746781
   0.06762    -22.746767
   0.07282    -22.746749
   0.07802    -22.746729
   0.08322    -22.746710
   0.08842    -22.746690
   0.09363    -22.746667
   0.09883    -22.746640
   0.10403    -22.746615
   0.10923    -22.746590
   0.11443    -22.746563
   0.11963    -22.746536
   0.12483    -22.746507
   0.13004    -22.746476
   0.13524    -22.746443
   0.14044    -22.746410
   0.14564    -22.746377
   0.15084    -22.746340
   0.15604    -22.746303
   0.16124    -22.746265
   0.16645    -22.746227
   0.17165    -22.746188
   0.17685    -22.746147
   0.18205    -22.746105
   0.18725    -22.746065
   0.19245    -22.746022
   0.19765    -22.745976
   0.20286    -22.745931
   0.20806    -22.745886
   0.21326    -22.745839
   0.21846    -22.745792
   0.22366    -22.745746
   0.22886    -22.745698
   0.23406    -22.745648
   0.23927    -22.745597
   0.24447    -22.745547
   0.24967    -22.745496
   0.25487    -22.745443
   0.26007    -22.745391
   0.26527    -22.745339
   0.27047    -22.745285
   0.27568    -22.745232
   0.28088    -22.745179
   0.28608    -22.745122
   0.29128    -22.745068
   0.29648    -22.745014
   0.30168    -22.744959
   0.30688    -22.744904
   0.31209    -22.744848
   0.31729    -22.744794
   0.32249    -22.744739
   0.32769    -22.744685
   0.33289    -22.744630
   0.33809    -22.744573
   0.34329    -22.744517
   0.34850    -22.744460
   0.35370    -22.744406
   0.35890    -22.744350
   0.36410    -22.744294
   0.36930    -22.744238
   0.37450    -22.744184
   0.37970    -22.744132
   0.38491    -22.744078
   0.39011    -22.744026
   0.39531    -22.743973
   0.40051    -22.743920
   0.40571    -22.743869
   0.41091    -22.743815
   0.41611    -22.743761
   0.42132    -22.743708
   0.42652    -22.743659
   0.43172    -22.743609
   0.43692    -22.743561
   0.44212    -22.743515
   0.44732    -22.743468
   0.45252    -22.743421
   0.45773    -22.743374
   0.46293    -22.743328
   0.46813    -22.743286
   0.47333    -22.743243
   0.47853    -22.743200
   0.48373    -22.743158
   0.48893    -22.743119
   0.49414    -22.743079
   0.49934    -22.743041
   0.50454    -22.743003
   0.50974    -22.742968
   0.51494    -22.742932
   0.52014    -22.742896
   0.52534    -22.742863
   0.53055    -22.742831
   0.53575    -22.742799
   0.54095    -22.742767
   0.54615    -22.742736
   0.55135    -22.742707
   0.55655    -22.742680
   0.56175    -22.742656
   0.56696    -22.742629
   0.57216    -22.742605
   0.57736    -22.742582
   0.58256    -22.742561
   0.58776    -22.742538
   0.59296    -22.742519
   0.59816    -22.742505
   0.60337    -22.742490
   0.60857    -22.742477
   0.61377    -22.742464
   0.61897    -22.742450
   0.62417    -22.742441
   0.62937    -22.742432
   0.63457    -22.742425
   0.63977    -22.742419
   0.64498    -22.742416
   0.65018    -22.742411
   0.65538    -22.742408
   0.66058    -22.742406
   0.66058    -22.742406
   0.66358    -22.742406
   0.66659    -22.742408
   0.66959    -22.742408
   0.67259    -22.742407
   0.67560    -22.742405
   0.67860    -22.742404
   0.68160    -22.742402
   0.68460    -22.742402
   0.68761    -22.742401
   0.69061    -22.742401
   0.69361    -22.742400
   0.69662    -22.742400
   0.69962    -22.742396
   0.70262    -22.742394
   0.70563    -22.742392
   0.70863    -22.742390
   0.71163    -22.742387
   0.71464    -22.742385
   0.71764    -22.742382
   0.72064    -22.742379
   0.72364    -22.742373
   0.72665    -22.742370
   0.72965    -22.742367
   0.73265    -22.742365
   0.73566    -22.742362
   0.73866    -22.742360
   0.74166    -22.742357
   0.74467    -22.742353
   0.74767    -22.742349
   0.75067    -22.742344
   0.75367    -22.742340
   0.75668    -22.742336
   0.75968    -22.742331
   0.76268    -22.742329
   0.76569    -22.742323
   0.76869    -22.742318
   0.77169    -22.742312
   0.77470    -22.742307
   0.77770    -22.742304
   0.78070    -22.742299
   0.78371    -22.742294
   0.78671    -22.742287
   0.78971    -22.742281
   0.79271    -22.742276
   0.79572    -22.742272
   0.79872    -22.742267
   0.80172    -22.742262
   0.80473    -22.742256
   0.80773    -22.742249
   0.81073    -22.742244
   0.81374    -22.742237
   0.81674    -22.742232
   0.81974    -22.742225
   0.82274    -22.742218
   0.82575    -22.742212
   0.82875    -22.742205
   0.83175    -22.742199
   0.83476    -22.742191
   0.83776    -22.742183
   0.84076    -22.742175
   0.84377    -22.742169
   0.84677    -22.742162
   0.84977    -22.742156
   0.85278    -22.742149
   0.85578    -22.742142
   0.85878    -22.742134
   0.86178    -22.742127
   0.86479    -22.742119
   0.86779    -22.742112
   0.87079    -22.742104
   0.87380    -22.742100
   0.87680    -22.742093
   0.87980    -22.742086
   0.88281    -22.742080
   0.88581    -22.742073
   0.88881    -22.742066
   0.89181    -22.742061
   0.89482    -22.742054
   0.89782    -22.742046
   0.90082    -22.742040
   0.90383    -22.742033
   0.90683    -22.742027
   0.90983    -22.742020
   0.91284    -22.742014
   0.91584    -22.742006
   0.91884    -22.742000
   0.92185    -22.741993
   0.92485    -22.741986
   0.92785    -22.741980
   0.93085    -22.741973
   0.93386    -22.741969
   0.93686    -22.741963
   0.93986    -22.741956
   0.94287    -22.741949
   0.94587    -22.741944
   0.94887    -22.741938
   0.95188    -22.741935
   0.95488    -22.741930
   0.95788    -22.741927
   0.96088    -22.741922
   0.96389    -22.741917
   0.96689    -22.741911
   0.96989    -22.741907
   0.97290    -22.741904
   0.97590    -22.741899
   0.97890    -22.741895
   0.98191    -22.741893
   0.98491    -22.741888
   0.98791    -22.741884
   0.99092    -22.741879
   0.99392    -22.741875
   0.99692    -22.741872
   0.99992    -22.741868
   1.00293    -22.741865
   1.00593    -22.741863
   1.00893    -22.741860
   1.01194    -22.741858
   1.01494    -22.741856
   1.01794    -22.741851
   1.02095    -22.741850
   1.02395    -22.741850
   1.02695    -22.741848
   1.02995    -22.741850
   1.03296    -22.741850
   1.03596    -22.741850
   1.03896    -22.741850
   1.04197    -22.741850
   1.04197    -22.741850
   1.04797    -22.741849
   1.05398    -22.741850
   1.05999    -22.741850
   1.06599    -22.741852
   1.07200    -22.741856
   1.07800    -22.741864
   1.08401    -22.741871
   1.09002    -22.741880
   1.09602    -22.741889
   1.10203    -22.741899
   1.10803    -22.741911
   1.11404    -22.741924
   1.12005    -22.741941
   1.12605    -22.741955
   1.13206    -22.741971
   1.13806    -22.741987
   1.14407    -22.742006
   1.15008    -22.742026
   1.15608    -22.742047
   1.16209    -22.742068
   1.16809    -22.742090
   1.17410    -22.742115
   1.18011    -22.742142
   1.18611    -22.742170
   1.19212    -22.742198
   1.19813    -22.742227
   1.20413    -22.742257
   1.21014    -22.742289
   1.21614    -22.742321
   1.22215    -22.742353
   1.22816    -22.742388
   1.23416    -22.742424
   1.24017    -22.742461
   1.24617    -22.742499
   1.25218    -22.742538
   1.25819    -22.742579
   1.26419    -22.742622
   1.27020    -22.742667
   1.27620    -22.742711
   1.28221    -22.742756
   1.28822    -22.742803
   1.29422    -22.742854
   1.30023    -22.742903
   1.30623    -22.742955
   1.31224    -22.743006
   1.31825    -22.743057
   1.32425    -22.743110
   1.33026    -22.743165
   1.33627    -22.743220
   1.34227    -22.743276
   1.34828    -22.743330
   1.35428    -22.743387
   1.36029    -22.743447
   1.36630    -22.743506
   1.37230    -22.743567
   1.37831    -22.743626
   1.38431    -22.743689
   1.39032    -22.743753
   1.39633    -22.743815
   1.40233    -22.743877
   1.40834    -22.743940
   1.41434    -22.744004
   1.42035    -22.744067
   1.42636    -22.744131
   1.43236    -22.744196
   1.43837    -22.744260
   1.44437    -22.744326
   1.45038    -22.744391
   1.45639    -22.744452
   1.46239    -22.744517
   1.46840    -22.744581
   1.47441    -22.744647
   1.48041    -22.744713
   1.48642    -22.744779
   1.49242    -22.744844
   1.49843    -22.744909
   1.50444    -22.744973
   1.51044    -22.745035
   1.51645    -22.745099
   1.52245    -22.745162
   1.52846    -22.745223
   1.53447    -22.745285
   1.54047    -22.745347
   1.54648    -22.745408
   1.55248    -22.745469
   1.55849    -22.745529
   1.56450    -22.745587
   1.57050    -22.745645
   1.57651    -22.745704
   1.58251    -22.745757
   1.58852    -22.745812
   1.59453    -22.745868
   1.60053    -22.745922
   1.60654    -22.745974
   1.61255    -22.746024
   1.61855    -22.746075
   1.62456    -22.746125
   1.63056    -22.746172
   1.63657    -22.746216
   1.64258    -22.746261
   1.64858    -22.746304
   1.65459    -22.746346
   1.66059    -22.746384
   1.66660    -22.746422
   1.67261    -22.746458
   1.67861    -22.746494
   1.68462    -22.746528
   1.69062    -22.746562
   1.69663    -22.746593
   1.70264    -22.746626
   1.70864    -22.746653
   1.71465    -22.746680
   1.72065    -22.746705
   1.72666    -22.746728
   1.73267    -22.746752
   1.73867    -22.746773
   1.74468    -22.746791
   1.75069    -22.746806
   1.75669    -22.746818
   1.76270    -22.746832
   1.76870    -22.746843
   1.77471    -22.746853
   1.78072    -22.746863
   1.78672    -22.746870
   1.79273    -22.746873
   1.79873    -22.746879
   1.80474    -22.746878
   1.80474    -22.746878
   1.80724    -22.746880
   1.80974    -22.746880
   1.81224    -22.746880
   1.81474    -22.746876
   1.81725    -22.746874
   1.81975    -22.746874
   1.82225    -22.746874
   1.82475    -22.746874
   1.82725    -22.746874
   1.82975    -22.746874
   1.83225    -22.746874
   1.83475    -22.746875
   1.83725    -22.746879
   1.83976    -22.746879
   1.84226    -22.746879
   1.84476    -22.746879
   1.84726    -22.746879
   1.84976    -22.746879
   1.85226    -22.746875
   1.85476    -22.746875
   1.85726    -22.746877
   1.85976    -22.746877
   1.86226    -22.746879
   1.86477    -22.746879
   1.86727    -22.746879
   1.86977    -22.746879
   1.87227    -22.746881
   1.87477    -22.746881
   1.87727    -22.746881
   1.87977    -22.746881
   1.88227    -22.746881
   1.88477    -22.746881
   1.88728    -22.746880
   1.88978    -22.746884
   1.89228    -22.746884
   1.89478    -22.746884
   1.89728    -22.746884
   1.89978    -22.746888
   1.90228    -22.746888
   1.90478    -22.746890
   1.90728    -22.746890
   1.90979    -22.746890
   1.91229    -22.746893
   1.91479    -22.746890
   1.91729    -22.746894
   1.91979    -22.746894
   1.92229    -22.746894
   1.92479    -22.746894
   1.92729    -22.746894
   1.92979    -22.746894
   1.93230    -22.746894
   1.93480    -22.746898
   1.93730    -22.746898
   1.93980    -22.746898
   1.94230    -22.746898
   1.94480    -22.746898
   1.94730    -22.746898
   1.94980    -22.746898
   1.95230    -22.746898
   1.95480    -22.746898
   1.95731    -22.746898
   1.95981    -22.746898
   1.96231    -22.746898
   1.96481    -22.746898
   1.96731    -22.746898
   1.96981    -22.746894
   1.97231    -22.746894
   1.97481    -22.746896
   1.97731    -22.746896
   1.97982    -22.746896
   1.98232    -22.746896
   1.98482    -22.746896
   1.98732    -22.746892
   1.98982    -22.746892
   1.99232    -22.746892
   1.99482    -22.746892
   1.99732    -22.746892
   1.99982    -22.746892
   2.00233    -22.746888
   2.00483    -22.746888
   2.00733    -22.746888
   2.00983    -22.746888
   2.01233    -22.746888
   2.01483    -22.746888
   2.01733    -22.746890
   2.01983    -22.746890
   2.02233    -22.746890
   2.02484    -22.746890
   2.02734    -22.746890
   2.02984    -22.746890
   2.03234    -22.746895
   2.03484    -22.746895
   2.03734    -22.746895
   2.03984    -22.746895
   2.04234    -22.746895
   2.04484    -22.746895
   2.04735    -22.746895
   2.04985    -22.746895
   2.05235    -22.746895
   2.05485    -22.746895
   2.05735    -22.746895
   2.05985    -22.746892
   2.06235    -22.746892
   2.06485    -22.746892
   2.06735    -22.746895
   2.06985    -22.746895
   2.07236    -22.746895
   2.07486    -22.746895
   2.07736    -22.746895
   2.07986    -22.746895
   2.08236    -22.746893
   2.08486    -22.746893
   2.08736    -22.746893
   2.08986    -22.746893
   2.09236    -22.746893
   2.09487    -22.746895
   2.09737    -22.746895
   2.09987    -22.746895
   2.10237    -22.746895
   2.10487    -22.746897
   2.10737    -22.746897
   2.10987    -22.746897
   2.11237    -22.746897
   2.11487    -22.746897
   2.11738    -22.746901
   2.11988    -22.746901
   2.12238    -22.746901
   2.12238    -22.746901
   2.12758    -22.746900
   2.13278    -22.746895
   2.13798    -22.746891
   2.14318    -22.746886
   2.14838    -22.746879
   2.15359    -22.746872
   2.15879    -22.746863
   2.16399    -22.746853
   2.16919    -22.746842
   2.17439    -22.746829
   2.17959    -22.746815
   2.18479    -22.746798
   2.19000    -22.746781
   2.19520    -22.746764
   2.20040    -22.746745
   2.20560    -22.746724
   2.21080    -22.746703
   2.21600    -22.746681
   2.22120    -22.746655
   2.22641    -22.746628
   2.23161    -22.746601
   2.23681    -22.746574
   2.24201    -22.746541
   2.24721    -22.746512
   2.25241    -22.746477
   2.25761    -22.746446
   2.26282    -22.746411
   2.26802    -22.746375
   2.27322    -22.746340
   2.27842    -22.746304
   2.28362    -22.746266
   2.28882    -22.746224
   2.29402    -22.746185
   2.29923    -22.746144
   2.30443    -22.746102
   2.30963    -22.746058
   2.31483    -22.746017
   2.32003    -22.745975
   2.32523    -22.745930
   2.33043    -22.745884
   2.33564    -22.745838
   2.34084    -22.745788
   2.34604    -22.745741
   2.35124    -22.745691
   2.35644    -22.745640
   2.36164    -22.745593
   2.36684    -22.745542
   2.37205    -22.745491
   2.37725    -22.745439
   2.38245    -22.745387
   2.38765    -22.745333
   2.39285    -22.745278
   2.39805    -22.745224
   2.40325    -22.745170
   2.40846    -22.745115
   2.41366    -22.745060
   2.41886    -22.745005
   2.42406    -22.744948
   2.42926    -22.744894
   2.43446    -22.744841
   2.43966    -22.744786
   2.44487    -22.744731
   2.45007    -22.744675
   2.45527    -22.744620
   2.46047    -22.744564
   2.46567    -22.744511
   2.47087    -22.744455
   2.47607    -22.744401
   2.48128    -22.744346
   2.48648    -22.744292
   2.49168    -22.744237
   2.49688    -22.744181
   2.50208    -22.744127
   2.50728    -22.744076
   2.51248    -22.744021
   2.51769    -22.743967
   2.52289    -22.743911
   2.52809    -22.743863
   2.53329    -22.743814
   2.53849    -22.743762
   2.54369    -22.743713
   2.54889    -22.743663
   2.55410    -22.743614
   2.55930    -22.743564
   2.56450    -22.743515
   2.56970    -22.743465
   2.57490    -22.743421
   2.58010    -22.743375
   2.58530    -22.743331
   2.59051    -22.743288
   2.59571    -22.743243
   2.60091    -22.743201
   2.60611    -22.743159
   2.61131    -22.743118
   2.61651    -22.743079
   2.62171    -22.743041
   2.62692    -22.743003
   2.63212    -22.742966
   2.63732    -22.742932
   2.64252    -22.742897
   2.64772    -22.742861
   2.65292    -22.742830
   2.65812    -22.742798
   2.66333    -22.742768
   2.66853    -22.742739
   2.67373    -22.742712
   2.67893    -22.742686
   2.68413    -22.742661
   2.68933    -22.742636
   2.69453    -22.742612
   2.69974    -22.742590
   2.70494    -22.742570
   2.71014    -22.742549
   2.71534    -22.742529
   2.72054    -22.742511
   2.72574    -22.742495
   2.73094    -22.742482
   2.73615    -22.742468
   2.74135    -22.742454
   2.74655    -22.742445
   2.75175    -22.742435
   2.75695    -22.742427
   2.76215    -22.742420
   2.76735    -22.742414
   2.77256    -22.742411
   2.77776    -22.742405
   2.78296    -22.742404
   2.78296    -22.742404
   2.78596    -22.742405
   2.78896    -22.742406
   2.79197    -22.742405
   2.79497    -22.742406
   2.79797    -22.742404
   2.80098    -22.742405
   2.80398    -22.742404
   2.80698    -22.742403
   2.80999    -22.742404
   2.81299    -22.742403
   2.81599    -22.742401
   2.81899    -22.742399
   2.82200    -22.742396
   2.82500    -22.742394
   2.82800    -22.742396
   2.83101    -22.742394
   2.83401    -22.742391
   2.83701    -22.742390
   2.84002    -22.742386
   2.84302    -22.742383
   2.84602    -22.742380
   2.84903    -22.742377
   2.85203    -22.742374
   2.85503    -22.742370
   2.85803    -22.742367
   2.86104    -22.742363
   2.86404    -22.742361
   2.86704    -22.742357
   2.87005    -22.742354
   2.87305    -22.742350
   2.87605    -22.742346
   2.87906    -22.742341
   2.88206    -22.742337
   2.88506    -22.742332
   2.88806    -22.742327
   2.89107    -22.742321
   2.89407    -22.742316
   2.89707    -22.742311
   2.90008    -22.742307
   2.90308    -22.742301
   2.90608    -22.742295
   2.90909    -22.742291
   2.91209    -22.742286
   2.91509    -22.742279
   2.91810    -22.742273
   2.92110    -22.742267
   2.92410    -22.742263
   2.92710    -22.742255
   2.93011    -22.742249
   2.93311    -22.742242
   2.93611    -22.742236
   2.93912    -22.742228
   2.94212    -22.742221
   2.94512    -22.742214
   2.94813    -22.742209
   2.95113    -22.742202
   2.95413    -22.742196
   2.95713    -22.742189
   2.96014    -22.742182
   2.96314    -22.742177
   2.96614    -22.742170
   2.96915    -22.742164
   2.97215    -22.742158
   2.97515    -22.742152
   2.97816    -22.742145
   2.98116    -22.742139
   2.98416    -22.742133
   2.98717    -22.742126
   2.99017    -22.742118
   2.99317    -22.742111
   2.99617    -22.742104
   2.99918    -22.742097
   3.00218    -22.742089
   3.00518    -22.742083
   3.00819    -22.742078
   3.01119    -22.742071
   3.01419    -22.742064
   3.01720    -22.742058
   3.02020    -22.742052
   3.02320    -22.742046
   3.02620    -22.742039
   3.02921    -22.742033
   3.03221    -22.742027
   3.03521    -22.742020
   3.03822    -22.742013
   3.04122    -22.742005
   3.04422    -22.742002
   3.04723    -22.741995
   3.05023    -22.741991
   3.05323    -22.741985
   3.05624    -22.741980
   3.05924    -22.741975
   3.06224    -22.741970
   3.06524    -22.741965
   3.06825    -22.741960
   3.07125    -22.741953
   3.07425    -22.741948
   3.07726    -22.741943
   3.08026    -22.741938
   3.08326    -22.741933
   3.08627    -22.741929
   3.08927    -22.741922
   3.09227    -22.741917
   3.09527    -22.741913
   3.09828    -22.741908
   3.10128    -22.741905
   3.10428    -22.741901
   3.10729    -22.741897
   3.11029    -22.741893
   3.11329    -22.741890
   3.11630    -22.741885
   3.11930    -22.741883
   3.12230    -22.741880
   3.12531    -22.741879
   3.12831    -22.741878
   3.13131    -22.741875
   3.13431    -22.741875
   3.13732    -22.741875
   3.14032    -22.741873
   3.14332    -22.741870
   3.14633    -22.741870
   3.14933    -22.741870
   3.15233    -22.741871
   3.15534    -22.741871
   3.15834    -22.741871
   3.16134    -22.741871
   3.16434    -22.741872
   3.16434    -22.741872
   3.17035    -22.741871
   3.17636    -22.741871
   3.18236    -22.741871
   3.18837    -22.741875
   3.19438    -22.741875
   3.20038    -22.741881
   3.20639    -22.741884
   3.21239    -22.741889
   3.21840    -22.741897
   3.22441    -22.741908
   3.23041    -22.741918
   3.23642    -22.741930
   3.24242    -22.741943
   3.24843    -22.741958
   3.25444    -22.741972
   3.26044    -22.741989
   3.26645    -22.742006
   3.27245    -22.742025
   3.27846    -22.742045
   3.28447    -22.742068
   3.29047    -22.742092
   3.29648    -22.742115
   3.30248    -22.742142
   3.30849    -22.742169
   3.31450    -22.742199
   3.32050    -22.742227
   3.32651    -22.742257
   3.33252    -22.742290
