#K-Path(1/A) Energy-Level(eV)
# NKPTS & NBANDS: 896  58
# Band-Index    1
   0.00000    -22.744546
   0.00520    -22.744544
   0.01040    -22.744542
   0.01559    -22.744537
   0.02079    -22.744534
   0.02599    -22.744526
   0.03119    -22.744518
   0.03639    -22.744509
   0.04158    -22.744498
   0.04678    -22.744487
   0.05198    -22.744476
   0.05718    -22.744464
   0.06237    -22.744451
   0.06757    -22.744434
   0.07277    -22.744416
   0.07797    -22.744398
   0.08317    -22.744378
   0.08836    -22.744356
   0.09356    -22.744335
   0.09876    -22.744311
   0.10396    -22.744285
   0.10916    -22.744257
   0.11435    -22.744230
   0.11955    -22.744205
   0.12475    -22.744175
   0.12995    -22.744145
   0.13515    -22.744112
   0.14034    -22.744080
   0.14554    -22.744045
   0.15074    -22.744011
   0.15594    -22.743974
   0.16113    -22.743938
   0.16633    -22.743899
   0.17153    -22.743860
   0.17673    -22.743819
   0.18193    -22.743777
   0.18712    -22.743736
   0.19232    -22.743694
   0.19752    -22.743652
   0.20272    -22.743607
   0.20792    -22.743560
   0.21311    -22.743514
   0.21831    -22.743467
   0.22351    -22.743420
   0.22871    -22.743372
   0.23391    -22.743324
   0.23910    -22.743275
   0.24430    -22.743224
   0.24950    -22.743172
   0.25470    -22.743121
   0.25989    -22.743070
   0.26509    -22.743019
   0.27029    -22.742966
   0.27549    -22.742912
   0.28069    -22.742861
   0.28588    -22.742806
   0.29108    -22.742751
   0.29628    -22.742695
   0.30148    -22.742638
   0.30668    -22.742584
   0.31187    -22.742528
   0.31707    -22.742473
   0.32227    -22.742419
   0.32747    -22.742364
   0.33267    -22.742310
   0.33786    -22.742255
   0.34306    -22.742199
   0.34826    -22.742144
   0.35346    -22.742089
   0.35865    -22.742036
   0.36385    -22.741980
   0.36905    -22.741925
   0.37425    -22.741870
   0.37945    -22.741816
   0.38464    -22.741764
   0.38984    -22.741711
   0.39504    -22.741657
   0.40024    -22.741606
   0.40544    -22.741553
   0.41063    -22.741503
   0.41583    -22.741450
   0.42103    -22.741399
   0.42623    -22.741348
   0.43143    -22.741299
   0.43662    -22.741251
   0.44182    -22.741204
   0.44702    -22.741158
   0.45222    -22.741113
   0.45741    -22.741068
   0.46261    -22.741024
   0.46781    -22.740980
   0.47301    -22.740938
   0.47821    -22.740896
   0.48340    -22.740855
   0.48860    -22.740816
   0.49380    -22.740776
   0.49900    -22.740739
   0.50420    -22.740700
   0.50939    -22.740664
   0.51459    -22.740627
   0.51979    -22.740592
   0.52499    -22.740559
   0.53019    -22.740525
   0.53538    -22.740494
   0.54058    -22.740463
   0.54578    -22.740433
   0.55098    -22.740405
   0.55617    -22.740378
   0.56137    -22.740352
   0.56657    -22.740329
   0.57177    -22.740305
   0.57697    -22.740283
   0.58216    -22.740262
   0.58736    -22.740241
   0.59256    -22.740223
   0.59776    -22.740206
   0.60296    -22.740190
   0.60815    -22.740174
   0.61335    -22.740163
   0.61855    -22.740152
   0.62375    -22.740141
   0.62895    -22.740133
   0.63414    -22.740125
   0.63934    -22.740121
   0.64454    -22.740117
   0.64974    -22.740112
   0.65493    -22.740109
   0.66013    -22.740109
   0.66013    -22.740109
   0.66313    -22.740108
   0.66613    -22.740108
   0.66914    -22.740109
   0.67214    -22.740108
   0.67514    -22.740108
   0.67814    -22.740106
   0.68114    -22.740105
   0.68414    -22.740105
   0.68714    -22.740103
   0.69014    -22.740101
   0.69314    -22.740099
   0.69614    -22.740097
   0.69915    -22.740095
   0.70215    -22.740093
   0.70515    -22.740091
   0.70815    -22.740087
   0.71115    -22.740084
   0.71415    -22.740081
   0.71715    -22.740078
   0.72015    -22.740076
   0.72315    -22.740072
   0.72615    -22.740069
   0.72916    -22.740066
   0.73216    -22.740064
   0.73516    -22.740060
   0.73816    -22.740060
   0.74116    -22.740057
   0.74416    -22.740053
   0.74716    -22.740049
   0.75016    -22.740045
   0.75316    -22.740041
   0.75616    -22.740036
   0.75917    -22.740033
   0.76217    -22.740030
   0.76517    -22.740025
   0.76817    -22.740020
   0.77117    -22.740014
   0.77417    -22.740010
   0.77717    -22.740004
   0.78017    -22.739997
   0.78317    -22.739992
   0.78617    -22.739987
   0.78918    -22.739984
   0.79218    -22.739980
   0.79518    -22.739974
   0.79818    -22.739968
   0.80118    -22.739962
   0.80418    -22.739957
   0.80718    -22.739953
   0.81018    -22.739947
   0.81318    -22.739941
   0.81618    -22.739933
   0.81919    -22.739928
   0.82219    -22.739921
   0.82519    -22.739915
   0.82819    -22.739909
   0.83119    -22.739903
   0.83419    -22.739894
   0.83719    -22.739888
   0.84019    -22.739881
   0.84319    -22.739871
   0.84619    -22.739864
   0.84920    -22.739859
   0.85220    -22.739852
   0.85520    -22.739844
   0.85820    -22.739837
   0.86120    -22.739831
   0.86420    -22.739823
   0.86720    -22.739817
   0.87020    -22.739810
   0.87320    -22.739804
   0.87620    -22.739797
   0.87921    -22.739789
   0.88221    -22.739782
   0.88521    -22.739777
   0.88821    -22.739770
   0.89121    -22.739762
   0.89421    -22.739754
   0.89721    -22.739750
   0.90021    -22.739744
   0.90321    -22.739739
   0.90621    -22.739732
   0.90922    -22.739725
   0.91222    -22.739718
   0.91522    -22.739712
   0.91822    -22.739705
   0.92122    -22.739698
   0.92422    -22.739692
   0.92722    -22.739686
   0.93022    -22.739680
   0.93322    -22.739673
   0.93622    -22.739668
   0.93923    -22.739662
   0.94223    -22.739656
   0.94523    -22.739652
   0.94823    -22.739646
   0.95123    -22.739640
   0.95423    -22.739635
   0.95723    -22.739631
   0.96023    -22.739626
   0.96323    -22.739621
   0.96623    -22.739618
   0.96924    -22.739613
   0.97224    -22.739609
   0.97524    -22.739605
   0.97824    -22.739600
   0.98124    -22.739597
   0.98424    -22.739591
   0.98724    -22.739588
   0.99024    -22.739584
   0.99324    -22.739581
   0.99624    -22.739578
   0.99925    -22.739576
   1.00225    -22.739573
   1.00525    -22.739570
   1.00825    -22.739565
   1.01125    -22.739563
   1.01425    -22.739561
   1.01725    -22.739558
   1.02025    -22.739556
   1.02325    -22.739555
   1.02625    -22.739555
   1.02926    -22.739556
   1.03226    -22.739556
   1.03526    -22.739557
   1.03826    -22.739556
   1.04126    -22.739557
   1.04126    -22.739557
   1.04726    -22.739557
   1.05326    -22.739557
   1.05927    -22.739557
   1.06527    -22.739560
   1.07127    -22.739563
   1.07727    -22.739568
   1.08327    -22.739575
   1.08928    -22.739585
   1.09528    -22.739591
   1.10128    -22.739603
   1.10728    -22.739615
   1.11328    -22.739630
   1.11929    -22.739645
   1.12529    -22.739659
   1.13129    -22.739675
   1.13729    -22.739691
   1.14329    -22.739710
   1.14930    -22.739728
   1.15530    -22.739750
   1.16130    -22.739772
   1.16730    -22.739795
   1.17330    -22.739818
   1.17931    -22.739844
   1.18531    -22.739870
   1.19131    -22.739899
   1.19731    -22.739928
   1.20331    -22.739959
   1.20932    -22.739991
   1.21532    -22.740023
   1.22132    -22.740058
   1.22732    -22.740090
   1.23332    -22.740126
   1.23933    -22.740161
   1.24533    -22.740200
   1.25133    -22.740239
   1.25733    -22.740280
   1.26333    -22.740322
   1.26934    -22.740367
   1.27534    -22.740411
   1.28134    -22.740456
   1.28734    -22.740501
   1.29334    -22.740554
   1.29935    -22.740602
   1.30535    -22.740650
   1.31135    -22.740699
   1.31735    -22.740752
   1.32335    -22.740806
   1.32936    -22.740860
   1.33536    -22.740912
   1.34136    -22.740967
   1.34736    -22.741023
   1.35336    -22.741081
   1.35937    -22.741140
   1.36537    -22.741197
   1.37137    -22.741256
   1.37737    -22.741316
   1.38337    -22.741377
   1.38938    -22.741441
   1.39538    -22.741503
   1.40138    -22.741565
   1.40738    -22.741627
   1.41338    -22.741689
   1.41939    -22.741752
   1.42539    -22.741817
   1.43139    -22.741882
   1.43739    -22.741946
   1.44339    -22.742011
   1.44940    -22.742074
   1.45540    -22.742138
   1.46140    -22.742200
   1.46740    -22.742263
   1.47340    -22.742327
   1.47941    -22.742393
   1.48541    -22.742459
   1.49141    -22.742523
   1.49741    -22.742587
   1.50341    -22.742649
   1.50942    -22.742714
   1.51542    -22.742778
   1.52142    -22.742841
   1.52742    -22.742901
   1.53342    -22.742964
   1.53943    -22.743025
   1.54543    -22.743085
   1.55143    -22.743145
   1.55743    -22.743203
   1.56343    -22.743263
   1.56944    -22.743320
   1.57544    -22.743377
   1.58144    -22.743435
   1.58744    -22.743489
   1.59344    -22.743540
   1.59945    -22.743594
   1.60545    -22.743645
   1.61145    -22.743697
   1.61745    -22.743746
   1.62345    -22.743792
   1.62946    -22.743840
   1.63546    -22.743886
   1.64146    -22.743931
   1.64746    -22.743972
   1.65347    -22.744014
   1.65947    -22.744054
   1.66547    -22.744094
   1.67147    -22.744130
   1.67747    -22.744168
   1.68348    -22.744198
   1.68948    -22.744234
   1.69548    -22.744265
   1.70148    -22.744294
   1.70748    -22.744322
   1.71349    -22.744348
   1.71949    -22.744372
   1.72549    -22.744396
   1.73149    -22.744418
   1.73749    -22.744438
   1.74350    -22.744457
   1.74950    -22.744472
   1.75550    -22.744484
   1.76150    -22.744498
   1.76750    -22.744510
   1.77351    -22.744520
   1.77951    -22.744527
   1.78551    -22.744535
   1.79151    -22.744540
   1.79751    -22.744544
   1.80352    -22.744546
   1.80352    -22.744546
   1.80602    -22.744546
   1.80852    -22.744546
   1.81103    -22.744544
   1.81353    -22.744540
   1.81604    -22.744540
   1.81854    -22.744542
   1.82105    -22.744545
   1.82355    -22.744547
   1.82606    -22.744547
   1.82856    -22.744547
   1.83107    -22.744547
   1.83357    -22.744547
   1.83607    -22.744547
   1.83858    -22.744547
   1.84108    -22.744547
   1.84359    -22.744547
   1.84609    -22.744547
   1.84860    -22.744547
   1.85110    -22.744547
   1.85361    -22.744547
   1.85611    -22.744547
   1.85862    -22.744547
   1.86112    -22.744547
   1.86363    -22.744547
   1.86613    -22.744547
   1.86863    -22.744547
   1.87114    -22.744549
   1.87364    -22.744549
   1.87615    -22.744549
   1.87865    -22.744549
   1.88116    -22.744549
   1.88366    -22.744552
   1.88617    -22.744552
   1.88867    -22.744552
   1.89118    -22.744552
   1.89368    -22.744549
   1.89618    -22.744549
   1.89869    -22.744549
   1.90119    -22.744545
   1.90370    -22.744549
   1.90620    -22.744554
   1.90871    -22.744554
   1.91121    -22.744554
   1.91372    -22.744554
   1.91622    -22.744554
   1.91873    -22.744554
   1.92123    -22.744554
   1.92373    -22.744558
   1.92624    -22.744558
   1.92874    -22.744558
   1.93125    -22.744558
   1.93375    -22.744558
   1.93626    -22.744562
   1.93876    -22.744562
   1.94127    -22.744562
   1.94377    -22.744562
   1.94628    -22.744562
   1.94878    -22.744562
   1.95129    -22.744562
   1.95379    -22.744562
   1.95629    -22.744562
   1.95880    -22.744562
   1.96130    -22.744562
   1.96381    -22.744562
   1.96631    -22.744562
   1.96882    -22.744562
   1.97132    -22.744562
   1.97383    -22.744562
   1.97633    -22.744558
   1.97884    -22.744554
   1.98134    -22.744554
   1.98384    -22.744556
   1.98635    -22.744556
   1.98885    -22.744553
   1.99136    -22.744553
   1.99386    -22.744553
   1.99637    -22.744553
   1.99887    -22.744553
   2.00138    -22.744553
   2.00388    -22.744553
   2.00639    -22.744553
   2.00889    -22.744553
   2.01140    -22.744553
   2.01390    -22.744553
   2.01640    -22.744553
   2.01891    -22.744553
   2.02141    -22.744552
   2.02392    -22.744552
   2.02642    -22.744552
   2.02893    -22.744552
   2.03143    -22.744554
   2.03394    -22.744560
   2.03644    -22.744560
   2.03895    -22.744560
   2.04145    -22.744560
   2.04395    -22.744560
   2.04646    -22.744556
   2.04896    -22.744556
   2.05147    -22.744556
   2.05397    -22.744556
   2.05648    -22.744556
   2.05898    -22.744556
   2.06149    -22.744556
   2.06399    -22.744556
   2.06650    -22.744556
   2.06900    -22.744556
   2.07150    -22.744556
   2.07401    -22.744554
   2.07651    -22.744554
   2.07902    -22.744558
   2.08152    -22.744558
   2.08403    -22.744558
   2.08653    -22.744558
   2.08904    -22.744558
   2.09154    -22.744558
   2.09405    -22.744558
   2.09655    -22.744558
   2.09906    -22.744558
   2.10156    -22.744558
   2.10406    -22.744558
   2.10657    -22.744557
   2.10907    -22.744559
   2.11158    -22.744559
   2.11408    -22.744559
   2.11659    -22.744561
   2.11909    -22.744561
   2.12160    -22.744565
   2.12160    -22.744565
   2.12679    -22.744560
   2.13199    -22.744558
   2.13719    -22.744555
   2.14239    -22.744549
   2.14759    -22.744543
   2.15278    -22.744536
   2.15798    -22.744527
   2.16318    -22.744517
   2.16838    -22.744507
   2.17358    -22.744494
   2.17877    -22.744480
   2.18397    -22.744464
   2.18917    -22.744446
   2.19437    -22.744428
   2.19956    -22.744412
   2.20476    -22.744389
   2.20996    -22.744369
   2.21516    -22.744346
   2.22036    -22.744320
   2.22555    -22.744296
   2.23075    -22.744271
   2.23595    -22.744241
   2.24115    -22.744211
   2.24635    -22.744179
   2.25154    -22.744148
   2.25674    -22.744114
   2.26194    -22.744079
   2.26714    -22.744045
   2.27234    -22.744009
   2.27753    -22.743971
   2.28273    -22.743932
   2.28793    -22.743893
   2.29313    -22.743854
   2.29832    -22.743812
   2.30352    -22.743773
   2.30872    -22.743731
   2.31392    -22.743688
   2.31912    -22.743644
   2.32431    -22.743599
   2.32951    -22.743556
   2.33471    -22.743510
   2.33991    -22.743459
   2.34511    -22.743414
   2.35030    -22.743366
   2.35550    -22.743315
   2.36070    -22.743265
   2.36590    -22.743215
   2.37110    -22.743164
   2.37629    -22.743114
   2.38149    -22.743063
   2.38669    -22.743010
   2.39189    -22.742956
   2.39708    -22.742903
   2.40228    -22.742850
   2.40748    -22.742796
   2.41268    -22.742741
   2.41788    -22.742685
   2.42307    -22.742633
   2.42827    -22.742578
   2.43347    -22.742524
   2.43867    -22.742470
   2.44387    -22.742412
   2.44906    -22.742357
   2.45426    -22.742302
   2.45946    -22.742248
   2.46466    -22.742195
   2.46986    -22.742141
   2.47505    -22.742086
   2.48025    -22.742030
   2.48545    -22.741976
   2.49065    -22.741919
   2.49584    -22.741866
   2.50104    -22.741814
   2.50624    -22.741761
   2.51144    -22.741709
   2.51664    -22.741656
   2.52183    -22.741604
   2.52703    -22.741554
   2.53223    -22.741504
   2.53743    -22.741454
   2.54263    -22.741402
   2.54782    -22.741352
   2.55302    -22.741306
   2.55822    -22.741257
   2.56342    -22.741209
   2.56862    -22.741161
   2.57381    -22.741114
   2.57901    -22.741068
   2.58421    -22.741024
   2.58941    -22.740980
   2.59460    -22.740937
   2.59980    -22.740895
   2.60500    -22.740854
   2.61020    -22.740814
   2.61540    -22.740772
   2.62059    -22.740734
   2.62579    -22.740697
   2.63099    -22.740661
   2.63619    -22.740626
   2.64139    -22.740592
   2.64658    -22.740559
   2.65178    -22.740526
   2.65698    -22.740495
   2.66218    -22.740465
   2.66738    -22.740437
   2.67257    -22.740408
   2.67777    -22.740384
   2.68297    -22.740357
   2.68817    -22.740334
   2.69336    -22.740311
   2.69856    -22.740289
   2.70376    -22.740268
   2.70896    -22.740248
   2.71416    -22.740228
   2.71935    -22.740211
   2.72455    -22.740197
   2.72975    -22.740183
   2.73495    -22.740171
   2.74015    -22.740157
   2.74534    -22.740146
   2.75054    -22.740134
   2.75574    -22.740125
   2.76094    -22.740120
   2.76614    -22.740116
   2.77133    -22.740112
   2.77653    -22.740110
   2.78173    -22.740110
   2.78173    -22.740110
   2.78473    -22.740109
   2.78773    -22.740109
   2.79073    -22.740108
   2.79373    -22.740108
   2.79673    -22.740107
   2.79973    -22.740105
   2.80274    -22.740104
   2.80574    -22.740103
   2.80874    -22.740101
   2.81174    -22.740100
   2.81474    -22.740101
   2.81774    -22.740102
   2.82074    -22.740102
   2.82374    -22.740099
   2.82674    -22.740098
   2.82974    -22.740097
   2.83275    -22.740095
   2.83575    -22.740092
   2.83875    -22.740090
   2.84175    -22.740087
   2.84475    -22.740083
   2.84775    -22.740081
   2.85075    -22.740078
   2.85375    -22.740073
   2.85675    -22.740070
   2.85975    -22.740065
   2.86276    -22.740061
   2.86576    -22.740057
   2.86876    -22.740053
   2.87176    -22.740049
   2.87476    -22.740045
   2.87776    -22.740040
   2.88076    -22.740036
   2.88376    -22.740032
   2.88676    -22.740028
   2.88977    -22.740024
   2.89277    -22.740020
   2.89577    -22.740015
   2.89877    -22.740009
   2.90177    -22.740003
   2.90477    -22.739997
   2.90777    -22.739990
   2.91077    -22.739988
   2.91377    -22.739984
   2.91677    -22.739978
   2.91978    -22.739968
   2.92278    -22.739962
   2.92578    -22.739956
   2.92878    -22.739950
   2.93178    -22.739944
   2.93478    -22.739938
   2.93778    -22.739933
   2.94078    -22.739926
   2.94378    -22.739919
   2.94678    -22.739913
   2.94979    -22.739906
   2.95279    -22.739900
   2.95579    -22.739893
   2.95879    -22.739887
   2.96179    -22.739880
   2.96479    -22.739873
   2.96779    -22.739867
   2.97079    -22.739859
   2.97379    -22.739855
   2.97679    -22.739850
   2.97980    -22.739843
   2.98280    -22.739838
   2.98580    -22.739831
   2.98880    -22.739824
   2.99180    -22.739817
   2.99480    -22.739811
   2.99780    -22.739806
   3.00080    -22.739798
   3.00380    -22.739791
   3.00680    -22.739784
   3.00981    -22.739776
   3.01281    -22.739769
   3.01581    -22.739762
   3.01881    -22.739755
   3.02181    -22.739750
   3.02481    -22.739743
   3.02781    -22.739736
   3.03081    -22.739730
   3.03381    -22.739725
   3.03681    -22.739718
   3.03982    -22.739712
   3.04282    -22.739706
   3.04582    -22.739701
   3.04882    -22.739694
   3.05182    -22.739689
   3.05482    -22.739685
   3.05782    -22.739679
   3.06082    -22.739676
   3.06382    -22.739670
   3.06682    -22.739665
   3.06983    -22.739659
   3.07283    -22.739654
   3.07583    -22.739649
   3.07883    -22.739644
   3.08183    -22.739638
   3.08483    -22.739634
   3.08783    -22.739628
   3.09083    -22.739624
   3.09383    -22.739618
   3.09683    -22.739614
   3.09984    -22.739610
   3.10284    -22.739606
   3.10584    -22.739601
   3.10884    -22.739598
   3.11184    -22.739594
   3.11484    -22.739590
   3.11784    -22.739587
   3.12084    -22.739585
   3.12384    -22.739582
   3.12684    -22.739580
   3.12985    -22.739579
   3.13285    -22.739576
   3.13585    -22.739574
   3.13885    -22.739574
   3.14185    -22.739574
   3.14485    -22.739576
   3.14785    -22.739575
   3.15085    -22.739575
   3.15385    -22.739575
   3.15685    -22.739576
   3.15986    -22.739576
   3.16286    -22.739578
   3.16286    -22.739578
   3.16886    -22.739577
   3.17486    -22.739577
   3.18086    -22.739575
   3.18686    -22.739579
   3.19287    -22.739579
   3.19887    -22.739582
   3.20487    -22.739588
   3.21087    -22.739593
   3.21687    -22.739604
   3.22288    -22.739612
   3.22888    -22.739625
   3.23488    -22.739638
   3.24088    -22.739647
   3.24688    -22.739660
   3.25289    -22.739677
   3.25889    -22.739693
   3.26489    -22.739710
   3.27089    -22.739728
   3.27689    -22.739748
   3.28290    -22.739771
   3.28890    -22.739796
   3.29490    -22.739820
   3.30090    -22.739845
   3.30690    -22.739873
   3.31291    -22.739901
   3.31891    -22.739931
   3.32491    -22.739961
   3.33091    -22.739993
